##TITLE=Tecor_PLA-Bicolour_White_Filament_r4_ATR-Corrected
##JCAMP-DX=5.01  $$ Nicolet v. 1
##DATATYPE=INFRARED SPECTRUM
##ORIGIN=Curtin University
##OWNER=Nicolet
##LONGDATE=2024/07/19
##TIME=11:23:02
##SPECTROMETER/DATA SYSTEM=Nicolet iS50
##DATA PROCESSING=
Ratio against background
%Transmittance->Absorbance
ATR Correction
Truncated
ElementMultiply or ElementDivide
##COMMENTS=
Number of sample scans: 32
Collection length: 47.28 sec
Sample gain: 1.0
Background collected on: Fri Jul 19 11:18:51 2024 (GMT+08:00);
Number of background scans: 32
Background gain: 1.0
Sample spacing:  1.000
Number of scan points: 16672
Resolution points: 8192
Number of FFT points: 65536
Apodization: N-B strong;
Phase correction: Mertz;
Laser frequency: 15798.3 cm-1
Number of rejected sample scans: 0
Number of rejected background scans: 0
Bench serial number: AUP1200105;
##RESOLUTION=4.000
##XUNITS=1/CM
##YUNITS=ABSORBANCE
##FIRSTX=400.163452
##LASTX=4000.187744
##FIRSTY=0.069825
##MAXX=4000.187744
##MINX=400.163452
##MAXY=1.260519
##MINY=-0.033012
##XFACTOR=1.000000
##YFACTOR=1.000000E-008
##NPOINTS=7468
##DELTAX=0.482125
##ZPD=8192
##XYDATA=(X++(Y..Y))
400.163 6982536 6999586 7024971 7040465 7025520 6964684 6850479 6685592 
404.020 6482216 6259396 6038598 5839598 5676981 5558036 5482005 5440950 
407.877 5421588 5408791 5388782 5352342 5296269 5223250 5139926 5054185 
411.734 4972378 4897887 4830654 4768226 4707164 4644516 4578641 4509352 
415.591 4437518 4364694 4292905 4224722 4163455 4113013 4077138 4058293 
419.448 4056465 4068518 4088426 4108393 4120572 4118810 4099979 4064600 
423.305 4016366 3961273 3906093 3857074 3818951 3794347 3783567 3784727 
427.162 3794142 3807060 3818594 3824731 3823166 3813592 3797385 3776851 
431.019 3754153 3730608 3706332 3680585 3652677 3622686 3591958 3563054 
434.876 3538991 3522272 3513872 3512771 3516152 3520182 3521099 3516269 
438.733 3504684 3487206 3466017 3443990 3423843 3407590 3396122 3389211 
442.590 3385716 3384013 3382331 3379118 3373115 3363382 3349192 3330050 
446.447 3305794 3276997 3245199 3213260 3185065 3165035 3156990 3163094 
450.304 3182869 3212931 3247474 3279527 3302640 3312509 3308002 3291367 
454.161 3267315 3241637 3219418 3203649 3194476 3189353 3183962 3173679 
458.017 3155186 3127701 3093469 3057332 3025407 3003297 2994285 2998210 
461.874 3011272 3027069 3038349 3038958 3026280 3001118 2967423 2930825 
465.731 2896599 2868099 2845875 2827879 2810527 2790135 2764148 2731895 
469.588 2694488 2654406 2614624 2578047 2547081 2523498 2508380 2502065 
473.445 2503955 2512425 2524820 2537767 2547752 2551858 2548391 2537251 
477.302 2519819 2498519 2476029 2454585 2435461 2418794 2403818 2389300 
481.159 2374140 2357865 2340916 2324589 2310674 2300843 2296002 2295875 
485.016 2298859 2302480 2304051 2301543 2294205 2282719 2268836 2254622 
488.873 2241638 2230437 2220534 2210924 2200853 2190453 2180946 2174316 
492.730 2172473 2176494 2186058 2199263 2213786 2227104 2237468 2244287 
496.587 2248066 2250000 2251422 2253438 2256790 2261884 2268929 2277938 
500.444 2288614 2300214 2311556 2321254 2328177 2331967 2333301 2333729 
504.301 2335108 2338824 2345096 2352761 2359571 2363007 2361226 2353824 
508.158 2342000 2328286 2315724 2307050 2304015 2307134 2315704 2328159 
512.015 2342396 2356139 2367151 2373506 2373847 2367677 2355561 2339056 
515.871 2320357 2301761 2284923 2270454 2257729 2245273 2231401 2214940 
519.728 2195754 2174876 2154168 2135761 2121351 2111739 2106710 2105258 
523.585 2105972 2107547 2109057 2109942 2110270 2110107 2109411 2107930 
527.442 2105298 2101214 2095740 2089485 2083643 2079748 2079225 2082943 
531.299 2090711 2101221 2112230 2121226 2126116 2125964 2121279 2113880 
535.156 2106268 2100825 2098970 2100754 2104921 2109379 2111985 2111280 
539.013 2106887 2099617 2091123 2083381 2078153 2076582 2078949 2084719 
542.870 2092620 2100921 2107682 2111126 2110004 2103936 2093619 2080837 
546.727 2068099 2058168 2053305 2054687 2062018 2073540 2086377 2097241 
550.584 2103186 2102263 2093984 2079296 2060392 2040107 2021325 2006425 
554.441 1996913 1993389 1995626 2002913 2014472 2029530 2047295 2066924 
558.298 2087313 2107074 2124636 2138569 2147962 2152743 2153717 2152384 
562.155 2150399 2149199 2149533 2151504 2154718 2158715 2163237 2168345 
566.012 2174262 2181077 2188452 2195607 2201477 2205217 2206582 2206249 
569.869 2205690 2206870 2211635 2221238 2236014 2255334 2277822 2301666 
573.725 2324931 2345849 2363011 2375565 2383342 2386958 2387745 2387513 
577.582 2388095 2390966 2396776 2405397 2416067 2427816 2439903 2452027 
581.439 2464224 2476613 2488956 2500544 2510299 2517253 2521044 2522287 
585.296 2522522 2523797 2527905 2535763 2547052 2560366 2573699 2585205 
589.153 2593714 2599059 2601883 2603290 2604471 2606392 2609747 2615095 
593.010 2622901 2633605 2647459 2664355 2683694 2704393 2725159 2744728 
596.867 2762184 2777044 2789236 2798951 2806464 2812014 2815917 2818553 
600.724 2820466 2822281 2824546 2827546 2831200 2835182 2839066 2842725 
604.581 2846450 2851062 2857679 2867453 2881205 2899244 2921315 2946745 
608.438 2974585 3003847 3033581 3062983 3091428 3118595 3144535 3169714 
612.295 3194934 3221074 3248818 3278309 3309093 3340201 3370507 3399155 
616.152 3425860 3450991 3475386 3500005 3525507 3552081 3579406 3606864 
620.009 3633765 3659599 3684035 3706906 3728087 3747531 3765263 3781612 
623.866 3797259 3813246 3830741 3850732 3873720 3899596 3927679 3956991 
627.723 3986550 4015596 4043632 4070349 4095434 4118545 4139318 4157635 
631.579 4173691 4188199 4202105 4216416 4231767 4248319 4265735 4283476 
635.436 4301140 4318754 4336740 4355731 4376175 4397981 4420447 4442473 
639.293 4462860 4480846 4496280 4509670 4521890 4533837 4546147 4559127 
643.150 4572887 4587571 4603477 4621068 4640722 4662445 4685624 4709104 
647.007 4731434 4751381 4768349 4782670 4795527 4808614 4823617 4841726 
650.864 4863291 4887868 4914269 4940948 4966337 4989104 5008369 5023893 
654.721 5036017 5045734 5054384 5063473 5074243 5087363 5102761 5119684 
658.578 5137017 5153743 5169384 5184189 5199073 5215171 5233388 5253923 
662.435 5276141 5298777 5320417 5339994 5357162 5372365 5386560 5400795 
666.292 5415773 5431705 5448356 5465384 5482645 5500343 5518957 5538912 
670.149 5560144 5581918 5602820 5621169 5635578 5645466 5651356 5654777 
674.006 5657824 5662578 5670560 5682465 5698153 5716908 5737791 5759881 
677.863 5782379 5804560 5825698 5845033 5861813 5875606 5886451 5894936 
681.720 5902111 5909174 5917120 5926458 5937122 5948594 5960178 5971303 
685.577 5981686 5991379 6000606 6009693 6018870 6028407 6038642 6050099 
689.433 6063529 6079697 6099171 6122015 6147631 6174844 6202082 6227820 
693.290 6250786 6270296 6286107 6298382 6307454 6313798 6318014 6320942 
697.147 6323758 6327877 6334767 6345539 6360560 6379191 6399792 6420044 
701.004 6437479 6450107 6456889 6457960 6454513 6448403 6441594 6435571 
704.861 6431029 6427675 6424424 6419720 6411953 6399879 6382824 6360724 
708.718 6334027 6303411 6269560 6232993 6193995 6152653 6108943 6062732 
712.575 6013760 5961588 5905536 5844784 5778531 5706246 5627939 5544264 
716.432 5456358 5365561 5272949 5179050 5083736 4986420 4886570 4784165 
720.289 4680107 4576180 4474723 4378094 4287974 4205047 4128990 4058808 
724.146 3993446 3932349 3875782 3824874 3781284 3746739 3722603 3709586 
728.003 3707774 3716812 3736282 3765973 3806112 3857410 3920925 3997839 
731.860 4089138 4195313 4316066 4450169 4595452 4749021 4907686 5068371 
735.717 5228602 5386695 5541795 5693626 5842099 5987064 6128071 6264537 
739.574 6395886 6521913 6642900 6759561 6872920 6983847 7092836 7199780 
743.431 7304006 7404514 7500253 7590443 7674838 7753808 7828346 7899905 
747.287 7970255 8041158 8114180 8190405 8270319 8353720 8439798 8527260 
751.144 8614470 8699618 8780727 8855695 8922303 8978270 9021440 9050030 
755.001 9062848 9059452 9040117 9005646 8957060 8895330 8821216 8735238 
758.858 8637811 8529431 8410805 8282906 8146971 8004373 7856617 7705308 
762.715 7552065 7398537 7246178 7096080 6948757 6804070 6661359 6519717 
766.572 6378492 6237595 6097742 5960322 5827028 5699362 5578232 5463754 
770.429 5355357 5252060 5152913 5057128 4964335 4874274 4786612 4700786 
774.286 4615972 4531256 4445914 4359672 4272778 4185928 4100027 4015885 
778.143 3933972 3854387 3776837 3700863 3625960 3551709 3477847 3404237 
782.000 3330838 3257653 3184643 3111674 3038443 2964438 2889019 2811615 
785.857 2731964 2650395 2567985 2486515 2408172 2335089 2268784 2209863 
789.714 2157892 2111619 2069476 2030020 1992371 1956314 1922170 1890502 
793.571 1861706 1835804 1812316 1790369 1768923 1747070 1724267 1700467 
797.428 1676208 1652478 1630508 1611475 1596159 1584693 1576506 1570421 
801.285 1565039 1559160 1552178 1544263 1536337 1529588 1525026 1523055 
805.141 1523313 1524822 1526365 1526907 1525906 1523397 1519771 1515526 
808.998 1511003 1506357 1501674 1497216 1493556 1491550 1492015 1495358 
812.855 1501206 1508314 1514845 1518894 1519173 1515440 1508677 1500824 
816.712 1494140 1490534 1490978 1495315 1502356 1510396 1517808 1523514 
820.569 1527329 1529922 1532511 1536399 1542507 1550977 1561096 1571466 
824.426 1580393 1586456 1588930 1588111 1585251 1582219 1580993 1583055 
828.283 1589126 1599001 1611894 1626841 1643172 1660703 1679710 1700601 
832.140 1723515 1747991 1772965 1796975 1818826 1837982 1855027 1871638 
835.997 1890309 1913780 1944397 1983662 2031987 2088765 2152693 2222238 
839.854 2295968 2372917 2452652 2535179 2620810 2709816 2802171 2897335 
843.711 2994175 3090985 3185734 3276323 3360900 3438105 3507156 3567844 
847.568 3620413 3665481 3703988 3737302 3767345 3796805 3829138 3868410 
851.425 3919039 3985298 4070866 4178471 4309706 4465057 4644028 4845481 
855.282 5067849 5309278 5567737 5840935 6126181 6420246 6719199 7018397 
859.139 7312641 7596521 7864914 8113632 8340026 8543293 8724486 8886109 
862.995 9031261 9162752 9282273 9389978 9484607 9564010 9625998 9669039 
866.852 9692780 9697993 9686226 9659152 9618030 9563367 9494904 9411946 
870.709 9313849 9200365 9071963 8929707 8775145 8609962 8435728 8253714 
874.566 8064878 7869900 7669326 7463578 7253060 7038174 6819357 6597271 
878.423 6372900 6147742 5923923 5704086 5491189 5288113 5097301 4920494 
882.280 4758596 4611893 4480309 4363776 4262493 4176872 4107438 4054456 
886.137 4017600 3995803 3987229 3989524 4000177 4016711 4037024 4059296 
889.994 4081992 4103794 4123550 4140370 4153770 4163729 4170671 4175267 
893.851 4178233 4180022 4180753 4180247 4178279 4174731 4169773 4163790 
897.708 4157198 4150197 4142633 4133964 4123474 4110553 4094954 4076949 
901.565 4057268 4036912 4016983 3998545 3982522 3969758 3960954 3956510 
905.422 3956365 3959715 3965058 3970351 3973572 3973252 3969103 3962098 
909.279 3954251 3947956 3945182 3946779 3952285 3960113 3968208 3974707 
913.136 3978446 3979151 3977164 3972991 3966949 3958968 3948819 3936473 
916.993 3922480 3908085 3895060 3885192 3879667 3878590 3880839 3884298 
920.849 3886411 3884822 3877956 3865349 3847631 3826316 3803384 3780856 
924.706 3760399 3743081 3729222 3718412 3709741 3701964 3693920 3684792 
928.563 3674353 3662951 3651427 3640785 3631911 3625251 3620816 3618253 
932.420 3617078 3616992 3618049 3620750 3625859 3634182 3646226 3661944 
936.277 3680648 3701104 3721805 3741376 3758931 3774362 3788383 3802315 
940.134 3817754 3836038 3857893 3883284 3911490 3941501 3972528 4004394 
943.991 4037740 4073853 4114265 4160218 4212275 4270075 4332598 4398481 
947.848 4466519 4535965 4606644 4678778 4752676 4828435 4905766 4983965 
951.705 5062010 5138698 5212664 5282293 5345646 5400397 5443953 5473705 
955.562 5487420 5483555 5461403 5421044 5363047 5288202 5197349 5091362 
959.419 4971371 4839097 4697105 4548813 4398332 4249888 4107333 3973564 
963.276 3850310 3738170 3636940 3546066 3465148 3394196 3333718 3284406 
967.133 3246827 3220984 3206072 3200459 3201913 3208075 3216899 3227062 
970.990 3238093 3250227 3264113 3280436 3299566 3321488 3345951 3372578 
974.847 3401218 3431997 3465233 3501211 3539988 3581176 3624060 3667784 
978.703 3711628 3755322 3798997 3843162 3888411 3935152 3983530 4033449 
982.560 4084699 4137162 4190918 4246149 4303056 4361640 4421666 4482690 
986.417 4544304 4606259 4668654 4731851 4796269 4862189 4929681 4998491 
990.274 5068345 5139077 5210865 5284218 5359808 5438255 5519884 5604616 
994.131 5692129 5782035 5874170 5968711 6066139 6167111 6272123 6381353 
997.988 6494689 6611738 6732074 6855438 6981870 7111703 7245473 7383883 
1001.845 7527642 7677476 7834116 7998280 8170604 8351599 8541591 8740767 
1005.702 8949307 9167542 9396111 9635994 9888452 10154725 10435841 10732327 
1009.559 11044215 11371146 11712647 12068389 12438376 12823008 13222979 
1012.934 13638993 14071709 14521402 14988151 15471765 15971951 16488363 
1016.309 17020574 17568012 18129804 18704602 19290582 19885508 20486720 
1019.683 21091432 21696922 22300630 22900264 23493884 24079930 24657250 
1023.058 25225290 25784132 26334760 26878974 27419462 27959654 28503502 
1026.433 29055202 29619076 30199316 30799818 31424096 32075158 32755318 
1029.809 33466208 34208660 34982728 35787716 36622204 37483968 38369804 
1033.184 39275364 40194984 41121736 42047684 42964276 43863084 44736128 
1036.559 45576284 46377160 47132796 47837316 48484864 49069684 49586612 
1039.934 50031740 50402856 50699728 50923860 51077960 51165504 51190216 
1043.310 51155860 51066260 50925516 50738008 50508528 50242124 49943964 
1046.685 49619160 49272880 48910336 48537020 48158648 47781092 47410096 
1050.060 47050612 46706476 46380000 46071876 45781460 45507372 45248084 
1053.435 45002548 44770704 44553484 44352752 44171028 44011192 43876532 
1056.811 43770732 43698132 43664064 43674968 43738304 43862288 44055396 
1060.186 44325816 44680848 45126496 45667116 46305204 47041384 47874536 
1063.561 48801940 49819528 50922120 52103768 53357916 54677548 56055368 
1066.936 57483864 58955528 60462944 61999016 63557084 65131204 66716160 
1070.312 68307608 69902096 71496992 73090496 74681352 76268672 77851472 
1073.687 79428080 80995520 82548872 84081016 85582496 87041944 88446752 
1077.062 89783720 91039480 92200968 93255488 94190768 94995704 95660936 
1080.437 96179792 96548344 96765464 96831400 96746376 96509704 96120128 
1083.813 95577320 94884136 94048936 93086000 92014416 90855280 89628576 
1087.188 88350912 87034656 85688840 84321056 82938872 81550744 80165280 
1090.563 78790072 77430176 76087736 74762360 73452560 72157168 70876624 
1093.938 69612880 68368664 67146328 65946800 64769168 63611180 62470160 
1097.313 61343992 60231776 59133952 58051920 56987376 55941772 54916172 
1100.689 53911048 52926624 51962928 51020096 50098376 49198228 48320548 
1104.064 47466832 46639120 45840040 45072444 44339060 43642076 42983136 
1107.439 42363344 41783580 41244760 40748084 40294864 39886268 39522916 
1110.814 39204616 38930212 38697884 38505308 38349888 38228880 38139296 
1114.190 38077776 38040648 38024016 38024364 38039152 38067272 38109328 
1117.565 38167392 38244396 38343308 38466440 38614884 38788456 38985816 
1120.940 39204836 39442880 39696868 39963300 40237968 40515732 40790388 
1124.315 41054748 41300752 41519964 41703944 41844908 41936236 41972952 
1127.691 41952044 41872504 41735044 41541584 41294624 40996624 40649532 
1131.066 40254708 39813000 39324912 38790820 38211072 37585972 36915776 
1134.441 36200728 35441284 34638388 33793924 32910938 31993804 31048056 
1137.816 30080008 29096288 28103318 27106904 26112136 25123400 24144646 
1141.192 23179776 22232846 21308258 20410750 19545048 18715508 17925740 
1144.567 17178408 16475202 15816945 15203875 14635858 14112473 13633129 
1147.942 13196892 12802437 12448039 12131616 11850964 11603899 11388437 
1151.317 11202917 11045849 10915892 10811742 10732096 10675626 10641183 
1154.693 10627754 10634637 10661314 10707533 10773199 10858411 10963532 
1158.068 11089256 11236681 11407289 11602800 11825141 12076228 12358032 
1161.443 12672652 13022582 13410892 13841437 14318924 14848775 15437028 
1164.818 16090125 16814770 17618072 18507450 19490776 20576244 21772122 
1168.194 23086430 24526442 26098320 27806970 29655788 31646744 33780156 
1171.569 36054396 38465276 41005100 43661688 46417464 49248712 52125436 
1174.944 55011524 57865620 60642212 63293404 65770872 68028096 70022872 
1178.319 71719536 73090800 74119088 74797096 75128272 75126288 74814456 
1181.695 74224072 73392216 72358896 71163936 69844592 68433968 66960472 
1185.070 65448296 63918252 62388508 60874880 59390892 57947308 56551980 
1188.445 55209852 53923504 52693916 51521320 50405712 49347232 48346020 
1191.820 47401928 46514232 45681516 44901632 44172008 43489824 42852180 
1195.196 42256348 41699760 41180136 40695580 40244608 39826192 39439560 
1198.571 39084040 38758648 38461880 38191624 37945292 37720092 37513304 
1201.946 37322564 37145880 36981340 36826940 36680232 36538468 36398572 
1205.321 36257480 36112412 35961112 35801800 35633092 35453676 35262264 
1208.697 35057448 34837856 34602200 34349452 34078856 33789964 33482596 
1212.072 33156854 32813064 32451924 32074360 31681628 31274998 30855886 
1215.447 30425614 29985490 29536902 29081392 28620672 28156680 27691286 
1218.822 27226302 26763212 26303172 25847044 25395614 24949572 24509742 
1222.198 24076868 23651684 23234598 22825694 22424690 22031110 21644472 
1225.573 21264572 20891646 20526424 20169996 19823718 19488766 19166066 
1228.948 18855982 18558400 18272748 17998262 17734080 17479574 17234356 
1232.323 16998344 16771662 16554531 16347052 16149101 15960282 15779990 
1235.698 15607460 15441938 15282759 15129533 14982018 14840153 14703900 
1239.074 14573140 14447676 14327240 14211485 14100218 13993385 13891132 
1242.449 13793781 13701794 13615610 13535613 13461953 13394640 13333431 
1245.824 13277906 13227521 13181691 13139975 13102154 13068321 13038994 
1249.199 13014919 12997057 12986237 12983039 12987627 12999758 13018771 
1252.575 13043942 13074459 13109691 13149187 13192691 13239996 13291031 
1255.950 13345692 13403952 13465856 13531491 13600984 13674355 13751386 
1259.325 13831589 13914095 13997759 14081280 14163382 14242835 14318737 
1262.700 14390342 14457113 14518668 14574644 14624636 14668153 14704548 
1266.076 14733107 14753032 14763458 14763540 14752524 14729711 14694531 
1269.451 14646517 14585243 14510415 14421891 14319664 14204018 14075485 
1272.826 13934763 13782629 13619794 13446681 13263324 13069490 12864733 
1276.201 12648717 12421397 12183318 11935640 11680061 11418662 11153634 
1279.577 10887042 10620610 10355734 10093411 9834412 9579375 9328964 9084028 
1283.434 8845735 8615591 8395453 8187370 7993524 7815827 7655895 7514800 
1287.292 7393087 7290833 7207776 7143372 7096944 7067626 7054431 7056246 
1291.149 7071897 7100129 7139793 7189721 7248755 7315620 7388843 7466717 
1295.006 7547446 7629221 7710448 7789860 7866567 7939949 8009553 8074896 
1298.864 8135422 8190528 8239697 8282627 8319386 8350413 8376541 8398741 
1302.721 8418068 8435450 8451618 8467028 8481935 8496296 8509894 8522314 
1306.579 8533082 8541647 8547609 8550640 8550612 8547565 8541708 8533330 
1310.436 8522882 8510908 8498053 8485041 8472542 8461089 8451015 8442321 
1314.293 8434831 8428271 8422458 8417354 8413178 8410226 8408780 8409020 
1318.151 8410895 8414204 8418719 8424302 8430946 8438680 8447556 8457396 
1322.008 8467832 8478331 8488464 8498095 8507640 8518013 8530579 8546780 
1325.866 8567896 8594722 8627500 8665968 8709566 8757603 8809522 8865008 
1329.723 8924025 8986781 9053690 9125197 9201807 9283771 9371255 9464087 
1333.581 9561893 9664083 9770019 9879077 9990825 10105012 10221641 10340857 
1337.438 10462945 10588215 10716995 10849541 10986099 11126789 11271710 
1340.813 11420849 11574224 11731909 11894169 12061406 12234195 12413104 
1344.188 12598529 12790519 12988694 13192324 13400434 13612022 13826257 
1347.564 14042532 14260410 14479470 14699154 14918636 15136938 15352952 
1350.939 15565716 15774408 15978441 16177201 16369873 16555248 16731618 
1354.314 16896946 17049136 17186392 17307536 17412218 17500884 17574714 
1357.689 17635346 17684724 17724764 17757306 17783782 17805274 17822356 
1361.065 17835256 17844046 17848836 17850030 17848166 17843786 17836918 
1364.440 17826668 17810892 17786180 17748282 17692664 17615240 17512886 
1367.815 17383728 17227326 17044438 16837258 16609463 16366568 16116261 
1371.190 15868454 15634999 15428939 15263498 15150885 15101109 15121172 
1374.566 15214433 15380323 15614361 15908386 16251013 16628268 17024438 
1377.941 17423088 17808204 18165154 18481452 18747242 18955178 19100214 
1381.316 19179226 19190810 19135090 19013720 18829690 18587158 18290866 
1384.691 17945882 17557156 17129570 16667983 16177493 15663393 15131153 
1388.067 14585942 14032370 13474119 12913902 12353650 11794860 11238944 
1391.442 10687640 10143150 9608302 9086484 8581521 8097416 7637995 7206566 
1395.299 6805497 6436038 6098248 5791252 5513493 5263097 5038060 4836435 
1399.157 4656196 4495282 4351565 4222828 4107065 4002481 3907696 3821631 
1403.014 3743490 3672491 3607804 3548564 3493907 3443169 3396064 3352637 
1406.872 3313218 3278146 3247513 3221021 3197980 3177401 3158310 3139949 
1410.729 3121999 3104476 3087751 3072176 3058080 3045527 3034519 3024951 
1414.586 3016878 3010471 3006010 3003787 3003923 3006267 3010500 3016098 
1418.444 3022671 3030024 3038277 3047765 3058977 3072296 3087912 3105781 
1422.301 3125683 3147395 3170780 3195922 3223123 3252816 3285490 3321579 
1426.159 3361424 3405274 3453292 3505572 3562238 3623381 3689226 3760133 
1430.016 3836775 3920117 4011457 4112325 4224317 4348942 4487656 4641745 
1433.874 4812643 5002040 5212080 5445416 5705072 5994350 6316610 6675140 
1437.731 7073046 7513176 7998024 8529370 9107929 9732926 10401744 11109847 
1441.588 11850984 12617522 13400909 14192106 14981964 15761586 16522536 
1444.964 17257170 17958806 18621722 19241152 19813078 20334356 20802612 
1448.339 21216578 21576070 21881952 22135762 22339200 22493580 22599720 
1451.714 22657976 22668550 22631882 22548636 22419608 22245302 22025626 
1455.089 21759958 21447582 21088246 20682866 20233678 19744068 19217964 
1458.465 18659400 18072132 17459816 16826374 16176222 15514380 14846139 
1461.840 14176556 13510063 12850299 12200238 11562569 10940041 10335552 
1465.215 9752025 9192193 8658237 8151788 7673913 7225337 6806473 6417500 
1469.073 6058158 5727634 5424504 5146877 4892506 4659235 4445065 4248402 
1472.930 4067879 3902301 3750520 3611448 3484087 3367631 3261479 3165266 
1476.787 3078639 3001183 2932202 2870733 2815541 2765277 2718642 2674537 
1480.645 2632217 2591334 2551973 2514556 2479731 2448183 2420332 2396306 
1484.502 2375770 2358054 2342312 2327748 2313769 2300162 2286926 2274190 
1488.360 2262041 2250361 2238915 2227397 2215563 2203471 2191385 2179747 
1492.217 2169040 2159605 2151618 2145013 2139611 2135137 2131280 2127754 
1496.074 2124245 2120487 2116246 2111509 2106417 2101300 2096585 2092642 
1499.932 2089614 2087370 2085546 2083648 2081244 2078136 2074376 2070214 
1503.789 2065915 2061624 2057237 2052544 2047158 2040836 2033533 2025494 
1507.647 2017219 2009361 2002608 1997593 1994735 1994237 1995973 1999511 
1511.504 2004006 2008431 2011722 2012999 2011774 2008045 2002316 1995338 
1515.362 1987909 1980680 1973989 1967874 1962186 1956764 1951520 1946490 
1519.219 1941805 1937562 1933815 1930464 1927407 1924457 1921474 1918349 
1523.076 1914915 1911042 1906532 1901277 1895331 1888946 1882583 1876835 
1526.934 1872114 1868666 1866335 1864720 1863292 1861644 1859594 1857234 
1530.791 1854830 1852634 1850681 1848758 1846395 1843121 1838592 1832779 
1534.649 1825971 1818677 1811463 1804800 1798969 1794088 1790134 1787110 
1538.506 1784932 1783470 1782421 1781281 1779401 1776099 1770834 1763478 
1542.364 1754276 1743890 1733115 1722765 1713340 1705028 1697657 1690880 
1546.221 1684358 1677973 1671858 1666386 1662089 1659383 1658489 1659284 
1550.078 1661301 1663840 1666127 1667467 1667384 1665799 1662940 1659400 
1553.936 1655873 1653046 1651352 1650876 1651267 1651863 1651767 1650226 
1557.793 1646660 1641012 1633620 1625261 1616845 1609309 1603240 1599006 
1561.651 1596575 1595680 1595918 1596834 1597990 1599013 1599575 1599527 
1565.508 1598740 1597288 1595282 1592962 1590538 1588204 1586043 1584169 
1569.365 1582622 1581549 1581119 1581578 1583086 1585688 1589192 1593237 
1573.223 1597306 1600944 1603769 1605643 1606674 1607134 1607326 1607620 
1577.080 1608272 1609519 1611525 1614454 1618332 1623038 1628176 1633198 
1580.938 1637377 1640141 1641258 1640974 1640040 1639530 1640497 1643695 
1584.795 1649261 1656720 1665082 1673153 1679905 1684651 1687303 1688193 
1588.653 1688058 1687767 1688171 1689913 1693418 1698804 1705902 1714194 
1592.510 1723027 1731558 1739033 1744938 1749101 1751808 1753726 1755737 
1596.367 1758692 1763282 1769786 1778174 1788051 1798853 1809913 1820671 
1600.225 1830626 1839427 1846802 1852671 1857002 1860009 1862026 1863590 
1604.082 1865335 1868014 1872274 1878645 1887311 1898198 1910761 1924222 
1607.940 1937620 1950103 1961048 1970340 1978272 1985560 1993129 2001801 
1611.797 2012127 2024187 2037681 2051977 2066405 2080426 2093807 2106608 
1615.655 2119086 2131591 2144270 2157080 2169651 2181534 2192209 2201380 
1619.512 2208989 2215225 2220416 2224874 2228769 2232127 2234711 2236290 
1623.369 2236683 2235936 2234300 2232146 2229863 2227745 2225864 2224199 
1627.227 2222672 2221343 2220370 2220031 2220532 2221813 2223535 2225035 
1631.084 2225565 2224554 2221842 2217771 2213033 2208460 2204622 2201653 
1634.942 2199196 2196602 2193225 2188738 2183231 2177223 2171329 2166075 
1638.799 2161686 2158050 2154927 2152105 2149589 2147637 2146592 2146695 
1642.656 2147919 2149964 2152335 2154634 2156709 2158768 2161210 2164451 
1646.514 2168628 2173522 2178553 2183091 2186720 2189500 2191966 2195064 
1650.371 2199732 2206686 2216144 2227766 2240694 2253840 2266069 2276514 
1654.229 2284590 2290111 2293242 2294476 2294533 2294328 2294848 2297002 
1658.086 2301435 2308443 2317827 2329086 2341477 2354218 2366604 2378174 
1661.944 2388642 2397950 2406215 2413745 2421018 2428642 2437338 2447803 
1665.801 2460519 2475644 2492946 2511841 2531488 2551031 2569719 2587229 
1669.658 2603515 2618947 2634114 2649683 2666246 2684156 2703448 2723769 
1673.516 2744538 2764967 2784253 2801912 2817795 2832270 2846160 2860482 
1677.373 2876230 2894107 2914308 2936476 2959885 2983564 3006648 3028550 
1681.231 3049145 3068659 3087683 3106820 3126566 3147260 3168949 3191566 
1685.088 3215001 3239278 3264599 3291409 3320178 3351415 3385376 3422131 
1688.946 3461447 3502947 3546227 3590960 3636976 3684346 3733141 3783481 
1692.803 3835460 3889107 3944466 4001699 4061119 4123262 4188749 4258235 
1696.660 4332252 4411135 4494950 4583604 4676886 4774405 4875811 4980668 
1700.518 5088688 5199728 5313992 5432036 5554751 5683375 5819104 5963101 
1704.375 6116082 6278263 6449365 6628664 6815247 7008373 7207570 7412994 
1708.233 7625228 7845387 8074741 8314482 8565398 8827733 9101066 9384503 
1712.090 9676958 9977476 10285557 10601158 10924692 11256626 11597069 
1715.465 11945653 12301313 12662625 13028161 13397042 13769168 14145397 
1718.841 14527237 14916572 15315187 15724541 16145810 16580127 17028942 
1722.216 17494430 17979716 18488988 19027130 19599428 20211078 20866894 
1725.591 21571188 22328192 23142384 24019038 24964468 25986064 27091742 
1728.966 28289508 29586798 30990464 32507100 34144068 35910232 37816552 
1732.342 39875220 42098324 44495384 47071128 49824300 52748160 55832624 
1735.717 59066940 62441892 65950220 69584760 73335512 77186056 81111888 
1739.092 85080560 89054360 92993688 96860096 100617208 104230288 107664648 
1742.467 110885320 113857904 116551080 118938424 120999720 122720016 
1745.360 124088752 125099384 125751272 126051864 126018568 125677432 
1748.253 125059200 124193368 123103920 121807624 120316472 118641912 
1751.146 116799224 114808680 112694096 110478592 108180896 105813184 
1754.040 103382328 100892552 98349320 95761264 93141064 90503744 87864808 
1757.415 85238152 82635352 80065848 77537728 75058176 72634104 70271680 
1760.790 67976136 65751700 63601984 61530136 59539192 57631688 55809248 
1764.165 54071848 52417608 50842876 49343264 47914348 46552504 45255144 
1767.541 44020156 42845112 41726552 40659524 39637948 38655272 37705528 
1770.916 36783788 35886572 35011436 34156304 33318878 32496178 31684368 
1774.291 30879104 30075782 29270190 28458810 27639290 26810712 25973878 
1777.666 25131104 24285944 23442478 22604598 21775228 20956096 20147782 
1781.042 19350324 18563916 17789704 17029972 16288091 15567777 14872433 
1784.417 14204232 13564096 12951586 12365746 11805643 11271038 10762528 
1787.792 10281352 9828719 9405288 9010631 8643291 8300995 7981240 7681799 
1791.649 7401070 7138158 6892822 6665141 6455164 6262678 6086923 5926395 
1795.507 5778896 5641651 5511733 5386564 5264615 5145774 5031292 4923304 
1799.364 4823952 4734388 4654237 4581497 4513202 4446491 4379664 4312563 
1803.222 4246670 4184077 4126605 4074764 4027566 3982761 3937821 3890808 
1807.079 3841082 3789325 3737319 3687060 3640252 3597854 3560138 3526731 
1810.937 3496870 3469433 3443025 3415835 3386024 3352072 3313448 3271024 
1814.794 3227160 3185145 3148390 3119258 3098335 3084173 3073889 3064151 
1818.651 3052430 3037611 3020168 3001510 2983116 2965731 2949093 2932055 
1822.509 2913169 2891295 2866034 2837636 2806884 2774556 2741310 2707448 
1826.366 2673163 2638594 2604027 2569871 2536512 2504188 2472898 2442517 
1830.224 2412913 2384129 2356460 2330367 2306293 2284457 2264678 2246168 
1834.081 2227878 2208420 2186538 2161313 2132497 2100696 2067318 2034554 
1837.938 2004796 1980192 1962001 1950212 1943459 1939207 1934448 1926292 
1841.796 1912670 1892668 1866461 1835218 1800516 1764236 1728267 1694381 
1845.653 1664300 1639353 1620456 1607753 1600529 1597280 1596128 1595195 
1849.511 1593136 1589312 1583786 1576843 1568746 1559464 1548713 1536319 
1853.368 1522643 1508743 1496404 1487653 1484088 1486240 1493249 1502987 
1857.226 1512431 1518644 1519414 1513753 1502227 1486549 1469228 1453018 
1861.083 1440280 1432460 1429949 1431971 1436727 1441832 1444896 1444068 
1864.940 1438485 1428559 1415810 1402439 1390562 1381651 1375990 1372605 
1868.798 1369741 1365415 1358402 1348558 1337172 1326394 1318667 1315502 
1872.655 1316994 1321516 1326089 1327358 1322770 1311341 1294256 1274301 
1876.513 1255009 1239298 1228627 1222424 1218537 1213940 1206143 1193811 
1880.370 1177328 1158463 1139807 1123846 1112368 1106361 1105778 1109895 
1884.228 1117615 1127416 1137495 1146016 1151449 1153106 1151733 1149604 
1888.085 1150221 1157337 1173859 1200512 1235438 1274309 1311460 1340888 
1891.942 1358148 1360764 1348798 1324441 1291511 1254499 1218007 1186042 
1895.800 1161661 1146403 1140259 1141709 1148037 1156135 1163281 1167807 
1899.657 1169451 1168822 1167087 1164917 1162312 1158426 1152238 1143119 
1903.515 1131496 1118654 1106466 1096423 1089005 1083323 1077537 1069624 
1907.372 1058397 1044011 1028435 1014679 1006111 1005437 1013930 1030895 
1911.229 1053983 1079226 1102069 1117953 1123465 1117186 1100044 1075545 
1915.087 1049177 1027012 1014379 1014242 1026502 1047756 1072522 1094448 
1918.944 1108143 1110303 1100468 1080670 1054931 1028020 1004745 988954 
1922.802 983007 987412 1000747 1019957 1040898 1058987 1070154 1071372 
1926.659 1061082 1039093 1006684 966283 921637 877555 839893 814296 805387 
1930.999 814865 840732 876899 914671 944816 960686 959668 944279 920524 
1935.338 895519 874884 860919 852291 845708 837929 827806 816505 807107 
1939.678 802649 804672 812377 823268 834328 843777 851248 857683 863829 
1944.018 869119 871365 867037 853037 828242 794056 754366 714330 679323 
1948.357 653992 642396 648178 674480 723062 792727 877532 966303 1044216 
1952.697 1096463 1112534 1090480 1037539 968803 901530 850113 820550 809082 
1957.036 803619 788596 749990 680818 582921 466868 348581 245565 172609 
1961.376 139429 149106 198709 279241 377926 478789 566546 627697 653981 
1965.716 643431 601447 539008 471458 414948 383956 387654 428156 498668 
1970.055 585366 669056 731328 759840 753144 722064 686109 667126 680538 
1974.395 728899 800912 876928 937612 974484 995777 1023476 1084218 1195318 
1978.734 1355213 1542071 1722005 1861763 1939417 1949632 1902905 1819108 
1982.592 1720286 1624027 1540856 1473946 1422409 1383034 1352365 1325574 
1986.449 1295925 1254516 1193128 1107620 1001906 888986 788484 720127 696659 
1990.789 717902 770475 831399 876851 890130 867849 819973 765874 727377 
1995.128 721007 753036 819022 905729 996406 1075225 1131502 1161237 1167357 
1999.468 1157621 1142242 1129611 1123859 1122618 1117285 1095864 1047939 
2003.325 969935 868753 761945 673483 625625 630983 686242 772534 861786 
2007.665 927202 951966 933917 882456 811737 733353 652336 568620 481593 
2012.005 395543 322290 277964 275668 318075 392664 473950 532352 545281 
2016.344 507196 432081 350136 295934 296703 361837 481543 630609 778771 
2020.684 899976 979649 1015802 1016180 992935 957202 916819 876198 837526 
2025.023 802734 773327 750693 734154 721760 710812 699223 687102 675966 
2029.363 667712 661290 650672 625479 572144 480573 348762 186984 18237 
2033.703 -126068 -214555 -224336 -149923 -4174 183557 376005 538470 646862 
2038.042 692778 683044 634447 567836 501019 445574 406603 385291 382270 
2042.382 399686 439836 502665 581476 661260 721241 741315 710184 632313 
2046.721 529482 436523 390406 417943 524703 692414 884050 1056727 1175101 
2051.061 1220849 1194403 1111835 997645 877509 772254 694455 647317 626362 
2055.401 622134 623844 622508 612739 593502 568024 542390 523900 518505 
2059.740 528806 552733 583851 613460 633607 639852 633587 621468 613138 
2064.080 617833 640917 682002 735385 791863 842037 879136 900393 906963 
2068.419 902308 890312 873397 851997 824867 790077 746586 694960 638464 
2072.759 582434 533772 499372 485123 494227 526633 578928 645229 718212 
2077.099 791024 858293 916731 964710 1002078 1028691 1044112 1047415 1037887 
2081.438 1015235 980591 936281 885784 833105 782278 737234 701554 678303 
2085.778 669597 676124 696287 726175 760146 791863 816161 830221 834452 
2090.117 831520 825155 818396 812529 806569 798775 787724 773934 760028 
2094.457 749868 746731 751796 763081 776559 787844 794439 797062 799342 
2098.797 806141 821056 844653 873851 902987 926111 939015 940771 933350 
2103.136 920528 905779 890998 876262 860803 844325 828287 815780 810522 
2107.476 814878 828249 846430 862733 870063 863762 843401 813325 781185 
2111.815 755406 742151 743520 756989 776483 794775 805453 804632 791409 
2116.155 766848 733198 692485 646450 596695 545539 496478 454238 423577 
2120.495 408111 408720 422962 445387 469176 487878 497198 495542 483548 
2124.834 462867 434605 398535 353354 297712 231882 158541 82776 10805 -52202 
2129.656 -103552 -144350 -178482 -211132 -246369 -285412 -326076 -363614 
2133.513 -392258 -407264 -406026 -388685 -357450 -316126 -269790 -224927 
2137.371 -189282 -171255 -178987 -217107 -285285 -376536 -478738 -577110 
2141.228 -659053 -717805 -755287 -779699 -803763 -838341 -888601 -951826 
2145.086 -1018510 -1075958 -1113599 -1127046 -1121276 -1108430 -1105253 
2148.461 -1127151 -1184584 -1278858 -1402977 -1542771 -1682139 -1807018 
2151.836 -1910568 -1994723 -2070568 -2154773 -2264659 -2411639 -2597105 
2155.211 -2808334 -3020098 -3197325 -3301188 -3296088 -3157545 -2879422 
2158.587 -2479267 -1997135 -1488685 -1012518 -616915 -331417 -164169 -102819 
2162.444 -121105 -183856 -256481 -311276 -334000 -325419 -298934 -273797 
2166.302 -267574 -289429 -337802 -402221 -468490 -524189 -563528 -588460 
2170.159 -607188 -630065 -665640 -716892 -780274 -846138 -900918 -930059 
2174.016 -921571 -868893 -773887 -648160 -512715 -394216 -319784 -309278 
2177.874 -369425 -490267 -646140 -800615 -915505 -959896 -919244 -798135 
2181.731 -620107 -420267 -236407 -99652 -28486 -26322 -83187 -179636 -291905 
2186.071 -396208 -472917 -509678 -503021 -458160 -387843 -308095 -234620 
2189.928 -178519 -144231 -129505 -127235 -128996 -127733 -119555 -103439 
2193.786 -79455 -47360 -5998 46283 109754 181233 253942 318544 366098 390965 
2198.607 392872 376842 351086 323132 297595 274802 252415 227669 200907 
2202.947 176195 160818 161891 183211 222095 269519 312220 336926 334923 
2207.287 304978 253728 193707 139414 103570 93588 110103 147231 194783 
2211.626 240360 273004 285327 275888 249157 215004 186060 174344 187354 
2215.966 225479 281450 342615 394395 425269 430633 413810 384852 356400 
2220.305 339608 340420 358413 387828 421043 451088 474685 492210 506465 
2224.645 521151 538773 560196 585135 613261 644914 681012 721967 766572 
2228.985 811263 850255 877722 889956 886926 873420 857195 847254 850281 
2233.324 868963 900834 939434 976322 1003572 1015996 1012435 995791 972404 
2237.664 950450 938255 941857 963794 1001397 1047298 1090484 1118851 1123073 
2242.003 1098986 1049273 983041 912728 850454 804446 777062 765134 762688 
2246.343 764022 766752 772583 786509 813783 856964 913969 977958 1039063 
2250.683 1087547 1116625 1124335 1113654 1091317 1065956 1045813 1037296 
2254.540 1044101 1066944 1103805 1150269 1200226 1247056 1284637 1308836 
2258.397 1318322 1314682 1301861 1284568 1266626 1250143 1234825 1218706 
2262.255 1199358 1175339 1147235 1117510 1090460 1070839 1063124 1070096 
2266.112 1092649 1129201 1176043 1227628 1277648 1320126 1350759 1368069 
2269.970 1373531 1371221 1366432 1363891 1366592 1374959 1387721 1402714 
2273.827 1418632 1435461 1454518 1477290 1504111 1533517 1562384 1587154 
2277.685 1605436 1617238 1625362 1634004 1647051 1666136 1689682 1713328 
2281.542 1731650 1740457 1738531 1728053 1713838 1701458 1694973 1695754 
2285.399 1702305 1711039 1718198 1720965 1718444 1711472 1701930 1691728 
2289.257 1682140 1673560 1665841 1658698 1652270 1647098 1644009 1643505 
2293.114 1645473 1648886 1652123 1653298 1650924 1644296 1633629 1620066 
2296.972 1605085 1590230 1576664 1565089 1555885 1549271 1545626 1545563 
2300.829 1549735 1558423 1571369 1587251 1604003 1619190 1630700 1637187 
2304.687 1638741 1636514 1632376 1628119 1624794 1622437 1620236 1616968 
2308.544 1611694 1604272 1595433 1586715 1579837 1576542 1577952 1584647 
2312.401 1596435 1612566 1631597 1651621 1670480 1686371 1698237 1706425 
2316.259 1712658 1719714 1730444 1746898 1769561 1797485 1829012 1862855 
2320.116 1899144 1939340 1985317 2037480 2092950 2144826 2182961 2196347 
2323.974 2176416 2119595 2028903 1913237 1785560 1659770 1547777 1457451 
2327.831 1391539 1348289 1322916 1309750 1303812 1301806 1302068 1303910 
2331.688 1306879 1310257 1313018 1314205 1313223 1310064 1305304 1299672 
2335.546 1293898 1288309 1283040 1278028 1273257 1268844 1265129 1262306 
2339.403 1260628 1260071 1260692 1262294 1264667 1267426 1269989 1271453 
2343.261 1271078 1268289 1263155 1256352 1249114 1242715 1238076 1235450 
2347.118 1234389 1234068 1233873 1233622 1233812 1235279 1238661 1243905 
2350.976 1250098 1255631 1258839 1258536 1254604 1247899 1239873 1232074 
2354.833 1225520 1220543 1216866 1214027 1211731 1209963 1208843 1208355 
2358.690 1207938 1206580 1202942 1195972 1185234 1171169 1154924 1137978 
2362.548 1121615 1106568 1093124 1081189 1070611 1061463 1053951 1048242 
2366.405 1044194 1041199 1038392 1034966 1030699 1026105 1022508 1021487 
2370.263 1024463 1032065 1044005 1059181 1076058 1093047 1108901 1122658 
2374.120 1133613 1141146 1144704 1144085 1139565 1132265 1124150 1117610 
2377.978 1115065 1118191 1127493 1142060 1159897 1178302 1194620 1206835 
2381.835 1213930 1216108 1214772 1211950 1209966 1210826 1215716 1224526 
2385.692 1236003 1248023 1258160 1264546 1266499 1264625 1260818 1257371 
2389.550 1256335 1258656 1264001 1270872 1277264 1281389 1282225 1279779 
2393.407 1274939 1268973 1263126 1258152 1254477 1252070 1250964 1251168 
2397.265 1252882 1256254 1261268 1267563 1274488 1281143 1286609 1290025 
2401.122 1290751 1288319 1282583 1273711 1262345 1249759 1237685 1228123 
2404.979 1223040 1223568 1229838 1240718 1253984 1266917 1277015 1282667 
2408.837 1283529 1280554 1275839 1271714 1270497 1273645 1281633 1293840 
2412.694 1308594 1323640 1336587 1345328 1348498 1345955 1338790 1329199 
2416.552 1319977 1313818 1312653 1316987 1325770 1336610 1346619 1353117 
2420.409 1354638 1351251 1344751 1337705 1332891 1332002 1335430 1341787 
2424.267 1348693 1353396 1353974 1349546 1340924 1329986 1319069 1310218 
2428.124 1304679 1302584 1303209 1305424 1308095 1310426 1312007 1312642 
2431.981 1312177 1310266 1306380 1299946 1290644 1278514 1264177 1248513 
2435.839 1232854 1218399 1206349 1197726 1193225 1193265 1197701 1205695 
2439.696 1215630 1225210 1231809 1233157 1228048 1216782 1201454 1185450 
2443.554 1172700 1166496 1168774 1179325 1196034 1215450 1233925 1248408 
2447.411 1257384 1260841 1260202 1257372 1254425 1252627 1252644 1254311 
2451.269 1257196 1260739 1264465 1267962 1270835 1272467 1272240 1269486 
2455.126 1263907 1255783 1246133 1236570 1228923 1224700 1224586 1228065 
2458.983 1233300 1237490 1237354 1229944 1213509 1187883 1155096 1118935 
2462.841 1084487 1057091 1041240 1039465 1051807 1075738 1106840 1139648 
2466.698 1169198 1191915 1206187 1212344 1212250 1208300 1202744 1197136 
2470.556 1192238 1188001 1184258 1180655 1177133 1173768 1170708 1168301 
2474.413 1166896 1167032 1169390 1174784 1183847 1196591 1212436 1229677 
2478.271 1246130 1259176 1266643 1267255 1260883 1248614 1232608 1215591 
2482.128 1200392 1189580 1184995 1187446 1196622 1210856 1227512 1243277 
2485.985 1255017 1260336 1258413 1250127 1238021 1225602 1216607 1213748 
2489.843 1218255 1229622 1245704 1263414 1279438 1291033 1296724 1296256 
2493.700 1290846 1282625 1274266 1268298 1266594 1269960 1277939 1289002 
2497.558 1300840 1311110 1317714 1319436 1316086 1308350 1297845 1286498 
2501.415 1276389 1269364 1266849 1269451 1277038 1288255 1301165 1313309 
2505.272 1322459 1327134 1327104 1323374 1317751 1312202 1308081 1305590 
2509.130 1303670 1300521 1294400 1284246 1270401 1254566 1239368 1227583 
2512.987 1221529 1222336 1229932 1243076 1259615 1277040 1292880 1304948 
2516.845 1311687 1312377 1307260 1297394 1284520 1270579 1257385 1246131 
2520.702 1237382 1231131 1227040 1224748 1224061 1224853 1227040 1230243 
2524.560 1233811 1236889 1238792 1239207 1238427 1237283 1236834 1237959 
2528.417 1241008 1245795 1251440 1256986 1261424 1264073 1264611 1262942 
2532.274 1259211 1253730 1247042 1239943 1233395 1228322 1225251 1224193 
2536.132 1224349 1224378 1223123 1219955 1215307 1210750 1208871 1212299 
2539.989 1223012 1241646 1267197 1297142 1327967 1355760 1377308 1390309 
2543.847 1393969 1389000 1377362 1361802 1345392 1330695 1319351 1311812 
2547.704 1307362 1304551 1301884 1298242 1293505 1288364 1284120 1282019 
2551.562 1282835 1286456 1292141 1298546 1304364 1308806 1311554 1312881 
2555.419 1313582 1314507 1316555 1320361 1326304 1334221 1343438 1352581 
2559.276 1360037 1364278 1364414 1360798 1355075 1350029 1348651 1353159 
2563.134 1364056 1379696 1396644 1410476 1417308 1414786 1403049 1384559 
2566.991 1363431 1344288 1331013 1325631 1328257 1337130 1349377 1361956 
2570.849 1372439 1379639 1383745 1385938 1388053 1391602 1397415 1405303 
2574.706 1414161 1422428 1428736 1432478 1434000 1434390 1435065 1436960 
2578.563 1440240 1444119 1447306 1448651 1447743 1445207 1442601 1441805 
2582.421 1444214 1450405 1459928 1471501 1483532 1494674 1503947 1510591 
2586.278 1513974 1513266 1507744 1497164 1482384 1465662 1450571 1441228 
2590.136 1441096 1451998 1473281 1502119 1534170 1564875 1590572 1609380 
2593.993 1621118 1626739 1627800 1625669 1621485 1616044 1610226 1605087 
2597.851 1601631 1600496 1601387 1602985 1603143 1599535 1590646 1576345 
2601.708 1558212 1539141 1522504 1511116 1506430 1508301 1515236 1524999 
2605.565 1535283 1544398 1551443 1556152 1558805 1559873 1560029 1560073 
2609.423 1560992 1563902 1569768 1579145 1591790 1606679 1622093 1636031 
2613.280 1646769 1653311 1655629 1654510 1651316 1647453 1644142 1642184 
2617.138 1642135 1644321 1649129 1656819 1667567 1680997 1696153 1711429 
2620.995 1724801 1734492 1739354 1739568 1736446 1732291 1729608 1730297 
2624.853 1735092 1743182 1752531 1760550 1764965 1764653 1759866 1752195 
2628.710 1743991 1737482 1734113 1734121 1736668 1740271 1743440 1745212 
2632.567 1745602 1745284 1745374 1746916 1750532 1756349 1763862 1772398 
2636.425 1781247 1789675 1797245 1803478 1807875 1810044 1809681 1806831 
2640.282 1802025 1796213 1790638 1786538 1784917 1786194 1790344 1796899 
2644.140 1805129 1814173 1823318 1831843 1839081 1844299 1846935 1846486 
2647.997 1842820 1836192 1827305 1817159 1806965 1797785 1790494 1785529 
2651.854 1782954 1782287 1782923 1783855 1784080 1782636 1778887 1772554 
2655.712 1763816 1753297 1741730 1729794 1717746 1705518 1692570 1678296 
2659.569 1662223 1644286 1624897 1604762 1584686 1565313 1546946 1529711 
2663.427 1513670 1498975 1486164 1475943 1468894 1465215 1464397 1465325 
2667.284 1466458 1466320 1463926 1459104 1452508 1445283 1438637 1433495 
2671.142 1430224 1428735 1428607 1429349 1430656 1432340 1434329 1436535 
2674.999 1438678 1440544 1441908 1442787 1443361 1443989 1444851 1445974 
2678.856 1446953 1447205 1446135 1443482 1439452 1434755 1430327 1427030 
2682.714 1425505 1425680 1427233 1429551 1432022 1434252 1436113 1437560 
2686.571 1438530 1438942 1438442 1436843 1433990 1429972 1425123 1419749 
2690.429 1414103 1408139 1401640 1394364 1386164 1377330 1368557 1360811 
2694.286 1354986 1351696 1351026 1352361 1354754 1357120 1358520 1358437 
2698.144 1356880 1354147 1350897 1347664 1344945 1342923 1341642 1340858 
2702.001 1340355 1339825 1339049 1337920 1336527 1335044 1333823 1333118 
2705.858 1333246 1334237 1336016 1338305 1340748 1343129 1345347 1347529 
2709.716 1349939 1352796 1356234 1360001 1363579 1366275 1367318 1366270 
2713.573 1363102 1358341 1353033 1348424 1345678 1345462 1347967 1352550 
2717.431 1358154 1363424 1367128 1368473 1367130 1363306 1357603 1350786 
2721.288 1343557 1336581 1330277 1324984 1320876 1318071 1316625 1316356 
2725.146 1317027 1318301 1319905 1321682 1323715 1326280 1329795 1334574 
2729.003 1340809 1348400 1357027 1366216 1375483 1384341 1392544 1399788 
2732.860 1405871 1410619 1413828 1415342 1415088 1413246 1410047 1405736 
2736.718 1400726 1395312 1389766 1384357 1379469 1375480 1372848 1371730 
2740.575 1372119 1373628 1375670 1377557 1378627 1378694 1377843 1376429 
2744.433 1374988 1373877 1373235 1372805 1372217 1370985 1368804 1365692 
2748.290 1361999 1358213 1354950 1352728 1351711 1351847 1352757 1353759 
2752.147 1354098 1353071 1350237 1345573 1339534 1333050 1327284 1323418 
2756.005 1322246 1324130 1328610 1334829 1341540 1347504 1351863 1354189 
2759.862 1354546 1353266 1351050 1348529 1346368 1345020 1344829 1345897 
2763.720 1348104 1351053 1354133 1356732 1358349 1358799 1358193 1357038 
2767.577 1355912 1355248 1355095 1355164 1354731 1353213 1350144 1345523 
2771.435 1339731 1333362 1327046 1321100 1315616 1310503 1305685 1301349 
2775.292 1297894 1295916 1295965 1298208 1302451 1308073 1314349 1320608 
2779.149 1326590 1332342 1338227 1344607 1351679 1359258 1366960 1374340 
2783.007 1380966 1386616 1391167 1394609 1396810 1397500 1396566 1394024 
2786.864 1390361 1386585 1384003 1383841 1386931 1393247 1401912 1411329 
2790.722 1419693 1425450 1427839 1427047 1424063 1420386 1417663 1417111 
2794.579 1419444 1424693 1432286 1441354 1450866 1459848 1467539 1473450 
2798.437 1477439 1479674 1480586 1480654 1480411 1480337 1480657 1481532 
2802.294 1483000 1484994 1487506 1490451 1493679 1497003 1500215 1503098 
2806.151 1505625 1508021 1510643 1514030 1518632 1524641 1531792 1539492 
2810.009 1546969 1553374 1558253 1561436 1563204 1564076 1564759 1565764 
2813.866 1567553 1570409 1574495 1579857 1586507 1594247 1602793 1611740 
2817.724 1620662 1629417 1638186 1647431 1657873 1669976 1683762 1698607 
2821.581 1713249 1726106 1735714 1741172 1742380 1740058 1735439 1729963 
2825.438 1724790 1720736 1718209 1717438 1718548 1721739 1727183 1734740 
2829.296 1744001 1753951 1763401 1771085 1776154 1778398 1778339 1776947 
2833.153 1775374 1774580 1775073 1776814 1779346 1782003 1784203 1785498 
2837.011 1785677 1784769 1782907 1780386 1777673 1775264 1773685 1773347 
2840.868 1774268 1776164 1778338 1779958 1780432 1779635 1778101 1777017 
2844.726 1777796 1781731 1789609 1801356 1816218 1832848 1849792 1865758 
2848.583 1879881 1891700 1901138 1908210 1913118 1916012 1917219 1917111 
2852.440 1916283 1915273 1914521 1914221 1914304 1914435 1914355 1913833 
2856.298 1912955 1911990 1911332 1911174 1911611 1912337 1913026 1913368 
2860.155 1913276 1913070 1913286 1914658 1917947 1923673 1932196 1943651 
2864.013 1958071 1975360 1995330 2017548 2041437 2066217 2091020 2115353 
2867.870 2139176 2163244 2189056 2218453 2253326 2294962 2343778 2398962 
2871.728 2458856 2521031 2583132 2643134 2699848 2753024 2803211 2851602 
2875.585 2899510 2948194 2998445 3050335 3103221 3155677 3205667 3250779 
2879.442 3288585 3316999 3334705 3341262 3337302 3324250 3304165 3279252 
2883.300 3251512 3222524 3193337 3164391 3135689 3107130 3078353 3049181 
2887.157 3019418 2989104 2958492 2927928 2898056 2869611 2843426 2820294 
2891.015 2800870 2785566 2774755 2768438 2766558 2768803 2774704 2783441 
2894.872 2793878 2804681 2814459 2822171 2827234 2829874 2830934 2831621 
2898.729 2833134 2836179 2840778 2846302 2851778 2856313 2859482 2861423 
2902.587 2862774 2864243 2866235 2868512 2870445 2871109 2869842 2866714 
2906.444 2862520 2858680 2856769 2858149 2863493 2872752 2885377 2900642 
2910.302 2917807 2936382 2956062 2976491 2997355 3018190 3038758 3059029 
2914.159 3079517 3100936 3124047 3149221 3176319 3204561 3232998 3260824 
2918.017 3287842 3314537 3341911 3370880 3401851 3434310 3466919 3497913 
2921.874 3525850 3550246 3572045 3593398 3617321 3646970 3684884 3732422 
2925.731 3789531 3854658 3925230 3997985 4069792 4138156 4201944 4261620 
2929.589 4319314 4378247 4442004 4513417 4594066 4683842 4781386 4884963 
2933.446 4993456 5107136 5227912 5358808 5502999 5662752 5838724 6029693 
2937.304 6233077 6445632 6664341 6886679 7110732 7334730 7556680 7774085 
2941.161 7983875 8182771 8367569 8535420 8683806 8810361 8912929 8989525 
2945.019 9038740 9060080 9054480 9024218 8972564 8902950 8818316 8720534 
2948.876 8610372 8487845 8353358 8208029 8054217 7895449 7735768 7578892 
2952.733 7427685 7283662 7146987 7016909 6892127 6771422 6653876 6539184 
2956.591 6427535 6319498 6216044 6118037 6026226 5940870 5861753 5788157 
2960.448 5719072 5653550 5590868 5530789 5473391 5419177 5368620 5322142 
2964.306 5280136 5243001 5211083 5184737 5163901 5147942 5135355 5123891 
2968.163 5111084 5094774 5073867 5048904 5021903 4995890 4974243 4959693 
2972.021 4953621 4956226 4966591 4983255 5004886 5030489 5059623 5092166 
2975.878 5128132 5167446 5209966 5255431 5303763 5355140 5409971 5469125 
2979.735 5533753 5605240 5685320 5775618 5877716 5992510 6120246 6260240 
2983.593 6411252 6571690 6740521 6917304 7102455 7296951 7501746 7717082 
2987.450 7942008 8174319 8410636 8647157 8880053 9105971 9322193 9526642 
2991.308 9717607 9893604 10053343 10195197 10317663 10418886 10497014 
2994.683 10549990 10576293 10575152 10547249 10494854 10421842 10332923 
2998.058 10232852 10125288 10012268 9893767 9768427 9634285 9489654 9333847 
3001.916 9167446 8992051 8809600 8622003 8430891 8237477 8042958 7848616 
3005.773 7655846 7466075 7280271 7098778 6921064 6746057 6572529 6399629 
3009.630 6227428 6056832 5889588 5727519 5572317 5424751 5284663 5151006 
3013.488 5022195 4896466 4772622 4650119 4529182 4410769 4296081 4186039 
3017.345 4081182 3981189 3885248 3792322 3701482 3612383 3525218 3440766 
3021.203 3359750 3282651 3209408 3139344 3071592 3005462 2940769 2877911 
3025.060 2817725 2760989 2708219 2659219 2613476 2570106 2528558 2488472 
3028.917 2450164 2413932 2379966 2348084 2317793 2288298 2259045 2229839 
3032.775 2200939 2172893 2146233 2121359 2098330 2077004 2057340 2039450 
3036.632 2023805 2010731 2000433 1992535 1986085 1979910 1973037 1964946 
3040.490 1956046 1947348 1940212 1935631 1933994 1934669 1936254 1936889 
3044.347 1934759 1928545 1917620 1902147 1883129 1861885 1840351 1820259 
3048.205 1803162 1790003 1780897 1775116 1771341 1768015 1763838 1758277 
3052.062 1751597 1744783 1739114 1735739 1735275 1737784 1742951 1750313 
3055.919 1759331 1769593 1780434 1790777 1798987 1803276 1801937 1794228 
3059.777 1780742 1763463 1745409 1729715 1718715 1713261 1712636 1714931 
3063.634 1717803 1719399 1718847 1716536 1713544 1711231 1710574 1711676 
3067.492 1714066 1716673 1718343 1718160 1715566 1710499 1703267 1694363 
3071.349 1684519 1674652 1665680 1658395 1653356 1650481 1649225 1648658 
3075.207 1647782 1645874 1642851 1639218 1636069 1634374 1634754 1637148 
3079.064 1640925 1644953 1648227 1650014 1650396 1649941 1649600 1650261 
3082.921 1652453 1656177 1660936 1665861 1670117 1672810 1673299 1671190 
3086.779 1666418 1659191 1650222 1640525 1631530 1624689 1621129 1621341 
3090.636 1624755 1629933 1634676 1636642 1633962 1625939 1613184 1597688 
3094.494 1582406 1570399 1564221 1565067 1572555 1584853 1598911 1611427 
3098.351 1619553 1621665 1617646 1608762 1597380 1586006 1576854 1571069 
3102.208 1568589 1568521 1569357 1569591 1568347 1565271 1560737 1555389 
3106.066 1549999 1545076 1541078 1538088 1536442 1536399 1538263 1542159 
3109.923 1547932 1554875 1562018 1568236 1572589 1574773 1575058 1574228 
3113.781 1573219 1572909 1573487 1574639 1575676 1575711 1574388 1571779 
3117.638 1568793 1566643 1566665 1569626 1575379 1582786 1589820 1594062 
3121.496 1593252 1586161 1572915 1555040 1535403 1517249 1503499 1496078 
3125.353 1495325 1500090 1508145 1516790 1523813 1527727 1528193 1525786 
3129.210 1521691 1517312 1513938 1512640 1514279 1519275 1527726 1539077 
3133.068 1552091 1564974 1575551 1582023 1583412 1580040 1573567 1566450 
3136.925 1561308 1559803 1562272 1567382 1572736 1575587 1573839 1566588 
3140.783 1554492 1539373 1523767 1510062 1500135 1494995 1494793 1498982 
3144.640 1506438 1515625 1524963 1532670 1537417 1538465 1535959 1531046 
3148.498 1525542 1521535 1520649 1523690 1530372 1539453 1549308 1558386 
3152.355 1565649 1570622 1573272 1573587 1571396 1566350 1558215 1547233 
3156.212 1534536 1522122 1512476 1507809 1509436 1517168 1529465 1543725 
3160.070 1557334 1568142 1575119 1578178 1577835 1574674 1568819 1560090 
3163.927 1548220 1533485 1517051 1500805 1487185 1478165 1474720 1476472 
3167.785 1481927 1489103 1496621 1503844 1511367 1520040 1530436 1541782 
3171.642 1552101 1558502 1558378 1550640 1536341 1518614 1501799 1490000 
3175.500 1485589 1488495 1496456 1505994 1513811 1517990 1518518 1517205 
3179.357 1516561 1518900 1525406 1536027 1549806 1565415 1581872 1598571 
3183.214 1615224 1631413 1646339 1658783 1667471 1671645 1671459 1668111 
3187.072 1663490 1659466 1657195 1656665 1656926 1656289 1653341 1647408 
3190.929 1638970 1629460 1620826 1614789 1612486 1613874 1617929 1622971 
3194.787 1626985 1628238 1625612 1618883 1608808 1596920 1585234 1575763 
3198.644 1569977 1568488 1570965 1576177 1582635 1588859 1593938 1597601 
3202.501 1600139 1601915 1603208 1603857 1603454 1601483 1597770 1592811 
3206.359 1587656 1583693 1582286 1584266 1589772 1598033 1607857 1617813 
3210.216 1626675 1633700 1638736 1642093 1644558 1646786 1649457 1652775 
3214.074 1656504 1660029 1662412 1662769 1660614 1656021 1649658 1642646 
3217.931 1636193 1631163 1627793 1625641 1623888 1621713 1618674 1614900 
3221.789 1611125 1608331 1607470 1608877 1612532 1617852 1624093 1630508 
3225.646 1636580 1641767 1645798 1648153 1648530 1646731 1642983 1637946 
3229.503 1632767 1628507 1625989 1625311 1625857 1626392 1625584 1622489 
3233.361 1617074 1610270 1603736 1599422 1599184 1603879 1613553 1626877 
3237.218 1641876 1656024 1666888 1672685 1672760 1667404 1658246 1647433 
3241.076 1637379 1630028 1626652 1627437 1631918 1639054 1647681 1656681 
3244.933 1665043 1671732 1675691 1675864 1671682 1663243 1651720 1639378 
3248.791 1628852 1622516 1621439 1624904 1630560 1634899 1634880 1628648 
3252.648 1616560 1601014 1585738 1574405 1569677 1572254 1581136 1593917 
3256.505 1607946 1621074 1632057 1640630 1647088 1651744 1654851 1656386 
3260.363 1656336 1654854 1652420 1649767 1647627 1646350 1645926 1645929 
3264.220 1645953 1645638 1645104 1644767 1645360 1647541 1651749 1658126 
3268.078 1666455 1676191 1686433 1695912 1703026 1705931 1702892 1692909 
3271.935 1676079 1654013 1629728 1607021 1589695 1580451 1580366 1588488 
3275.792 1602365 1618772 1634614 1647618 1656716 1661773 1663369 1662118 
3279.650 1658559 1652987 1645753 1637461 1629189 1622301 1618206 1617816 
3283.507 1621322 1628031 1636537 1645144 1652345 1657037 1658701 1657336 
3287.365 1653094 1646108 1636497 1624414 1610500 1595834 1582366 1572357 
3291.222 1567913 1570348 1579478 1593575 1609586 1623849 1633216 1636061 
3295.080 1632744 1625650 1618411 1614572 1616586 1624889 1637781 1651994 
3298.937 1664055 1671155 1672351 1668524 1662151 1656109 1652743 1653228 
3302.794 1657289 1663520 1670164 1675779 1679414 1680756 1679760 1676425 
3306.652 1670585 1661971 1650684 1637366 1623469 1610811 1601277 1596187 
3310.509 1596009 1600346 1608157 1618289 1629912 1642473 1655515 1668596 
3314.367 1680681 1690337 1696107 1696876 1692554 1684005 1673086 1661909 
3318.224 1652241 1644952 1639874 1636119 1632652 1628593 1623833 1618816 
3322.082 1614443 1611616 1610981 1612774 1616973 1623256 1631268 1640542 
3325.939 1650554 1660659 1670222 1678795 1686066 1692067 1696899 1700649 
3329.796 1703094 1703810 1702192 1697848 1691069 1682713 1674177 1666856 
3333.654 1661488 1658007 1655297 1651658 1645682 1636619 1625072 1612528 
3337.511 1601155 1592877 1589003 1589915 1595256 1604337 1616475 1630891 
3341.369 1646812 1663020 1677856 1689179 1695217 1694845 1688464 1677777 
3345.226 1665484 1654478 1646744 1642821 1641802 1641690 1640322 1636273 
3349.083 1629259 1620426 1611715 1605313 1603007 1605494 1612418 1622432 
3352.941 1633528 1643460 1650293 1652756 1650622 1644664 1636715 1629123 
3356.798 1624296 1623933 1628666 1637767 1649492 1661571 1672089 1679795 
3360.656 1684497 1686721 1687380 1687137 1686072 1683688 1679408 1672963 
3364.513 1664781 1656201 1649120 1645375 1646140 1651306 1659430 1667997 
3368.371 1674128 1675327 1670249 1659060 1643532 1626567 1611542 1601518 
3372.228 1598595 1603309 1614803 1630800 1648477 1664826 1677664 1685834 
3376.085 1689469 1689699 1688243 1686831 1686687 1688207 1690951 1693877 
3379.943 1695784 1695652 1693083 1688282 1682039 1675308 1668791 1662634 
3383.800 1656510 1649580 1641060 1630440 1618094 1604951 1592498 1582209 
3387.658 1575048 1571302 1570413 1571329 1573028 1574864 1576802 1579366 
3391.515 1583316 1589210 1597196 1606878 1617563 1628526 1639196 1649438 
3395.373 1659149 1668226 1676077 1681869 1684453 1682962 1677199 1667859 
3399.230 1656637 1645869 1637935 1634784 1637476 1645789 1658435 1673287 
3403.087 1687824 1699789 1707491 1710186 1708260 1702795 1695491 1688003 
3406.945 1681403 1676091 1671704 1667509 1662845 1657403 1651582 1646217 
3410.802 1642336 1640409 1640355 1641284 1641882 1640890 1637669 1632250 
3414.660 1625469 1618503 1612450 1608044 1605605 1605065 1606379 1609536 
3418.517 1614652 1621785 1630719 1640698 1650589 1658925 1664501 1666478 
3422.375 1664741 1659642 1652089 1643042 1633420 1623991 1615293 1607822 
3426.232 1601978 1598026 1596220 1596720 1599585 1604828 1612438 1622073 
3430.089 1633204 1644730 1655306 1663287 1667453 1667136 1662746 1655641 
3433.947 1647717 1641022 1637065 1636236 1638054 1641253 1644212 1645594 
3437.804 1644524 1640804 1634825 1627394 1619673 1612998 1608868 1608587 
3441.662 1613088 1622491 1635956 1651674 1667296 1680280 1688848 1692016 
3445.519 1690117 1684234 1676121 1667509 1660073 1655073 1653526 1656102 
3449.376 1663152 1674364 1688852 1705057 1721349 1736144 1748698 1758989 
3453.234 1767674 1775563 1783025 1789714 1794691 1796737 1795261 1790632 
3457.091 1784125 1777383 1771916 1768070 1765127 1761593 1756178 1748640 
3460.949 1740148 1733000 1729645 1731568 1738367 1747710 1756127 1760285 
3464.806 1758509 1751506 1742189 1734775 1733402 1740627 1756886 1780545 
3468.664 1808612 1837855 1865528 1890071 1910886 1927936 1941613 1952161 
3472.521 1959996 1965561 1969833 1974118 1979908 1988547 2000829 2016699 
3476.378 2035364 2055251 2074644 2091685 2105109 2114213 2119218 2121008 
3480.236 2121033 2121104 2122860 2127459 2135359 2146282 2159361 2173429 
3484.093 2187514 2200936 2213624 2225919 2238499 2251810 2266416 2282400 
3487.951 2299540 2317390 2335259 2352360 2367987 2381612 2393044 2402694 
3491.808 2411488 2420627 2431461 2444758 2460730 2478802 2497670 2515897 
3495.666 2532201 2545883 2557026 2566134 2574149 2581836 2589820 2598479 
3499.523 2607978 2618436 2629947 2642418 2655519 2668354 2679787 2688672 
3503.380 2694146 2696159 2695597 2693994 2693194 2694558 2698606 2704582 
3507.238 2710868 2715228 2715731 2710934 2700548 2685143 2665900 2644347 
3511.095 2622033 2600202 2579942 2562082 2547248 2535690 2527326 2521529 
3514.953 2517210 2512902 2507160 2498811 2487180 2472218 2454529 2435144 
3518.810 2415401 2396708 2380394 2367430 2358442 2353351 2351458 2351246 
3522.667 2350845 2348381 2342325 2332106 2318197 2301986 2285440 2270291 
3526.525 2257771 2248059 2240504 2233717 2226324 2217067 2205352 2191073 
3530.382 2174643 2156752 2138347 2120509 2104745 2092561 2085359 2083993 
3534.240 2088373 2097099 2107810 2117516 2123697 2124841 2121281 2114856 
3538.097 2108335 2104533 2105141 2109934 2116892 2122449 2122774 2114866 
3541.955 2097547 2072052 2041868 2011967 1987713 1973305 1970742 1979089 
3545.812 1994686 2011681 2023908 2026243 2016348 1995220 1967063 1937880 
3549.669 1913826 1899248 1895671 1901443 1912817 1925326 1935527 1941893 
3553.527 1945149 1947321 1950710 1956569 1964720 1973709 1981460 1986313 
3557.384 1987823 1986636 1984159 1981896 1980707 1980318 1979810 1977820 
3561.242 1973343 1965997 1956151 1944761 1933202 1922727 1914499 1909210 
3565.099 1907124 1907825 1910200 1912445 1912440 1908450 1899780 1887171 
3568.957 1873064 1860605 1852836 1851339 1855887 1864161 1873001 1879411 
3572.814 1881989 1881488 1880304 1881217 1886242 1895106 1905375 1912973 
3576.671 1913987 1905978 1889280 1866917 1843795 1824989 1814207 1812820 
3580.529 1819833 1832299 1846774 1860017 1870022 1875764 1877194 1874514 
3584.386 1868036 1858070 1845193 1830150 1814142 1798541 1784428 1772103 
3588.244 1761159 1750525 1739000 1725812 1711275 1696459 1683228 1673290 
3592.101 1667801 1666906 1669584 1674405 1680094 1685845 1692068 1699857 
3595.958 1710612 1725286 1743810 1764776 1785653 1803294 1814766 1817820 
3599.816 1811765 1797226 1776216 1751488 1726226 1703350 1685105 1672913 
3603.673 1666959 1666458 1669674 1674364 1678259 1679341 1676377 1669172 
3607.531 1658306 1645058 1631010 1617660 1606241 1597659 1592604 1591692 
3611.388 1595483 1604327 1618423 1637156 1659320 1682861 1705382 1724437 
3615.246 1738195 1745840 1747757 1745445 1741255 1737742 1737198 1741297 
3619.103 1750501 1764159 1780623 1797519 1812381 1822904 1827857 1827068 
3622.960 1821786 1814426 1808279 1806576 1812077 1826097 1848399 1876984 
3626.818 1908659 1939692 1966637 1986959 1999740 2005534 2006081 2003765 
3630.675 2000851 1998997 1999116 2001380 2005693 2011884 2020040 2030430 
3634.533 2043301 2058566 2075485 2092679 2108414 2120967 2129175 2132780 
3638.390 2132440 2129386 2125232 2121175 2118021 2115795 2114351 2113323 
3642.248 2112747 2112757 2113686 2115592 2118393 2121402 2124155 2126432 
3646.105 2128856 2133031 2141090 2155069 2176343 2204698 2238288 2273882 
3649.962 2307823 2337007 2359536 2374964 2384182 2388575 2389345 2387092 
3653.820 2381779 2373257 2361771 2348353 2335006 2323882 2316702 2313896 
3657.677 2314324 2315368 2313877 2307281 2294434 2275964 2254280 2232445 
3661.535 2213622 2199852 2192022 2189677 2191848 2197269 2205116 2214788 
3665.392 2225905 2237972 2250094 2260962 2269110 2273094 2271888 2264851 
3669.250 2251931 2233410 2210041 2182958 2153875 2124840 2098193 2075994 
3673.107 2059611 2049081 2043148 2039199 2034164 2025107 2010398 1989990 
3676.964 1965472 1939557 1915206 1894676 1879051 1868048 1860263 1853969 
3680.822 1847636 1840389 1832251 1823742 1815478 1807458 1799006 1788761 
3684.679 1775095 1756933 1734288 1708591 1682459 1659016 1640914 1629488 
3688.537 1624454 1623901 1625521 1627166 1628058 1628604 1630324 1634615 
3692.394 1642034 1651618 1661057 1667296 1667773 1661374 1648812 1632488 
3696.251 1615704 1601737 1592915 1590078 1593033 1600419 1610519 1621587 
3700.109 1631680 1639077 1642189 1639789 1631689 1618555 1602260 1585540 
3703.966 1571148 1561338 1557080 1558100 1563188 1570558 1578589 1586187 
3707.824 1592770 1598102 1601996 1604302 1604920 1603936 1601786 1599225 
3711.681 1596986 1595727 1595611 1596440 1597865 1599887 1602966 1607836 
3715.539 1615206 1625241 1636870 1648180 1656743 1660255 1657944 1650516 
3719.396 1640360 1630687 1624511 1623912 1629229 1639044 1650942 1661860 
3723.253 1669155 1671116 1667231 1658283 1646378 1634271 1625018 1621262 
3727.111 1624340 1633932 1647881 1662471 1673671 1678008 1673916 1662107 
3730.968 1645576 1628742 1616101 1610889 1614320 1625198 1640541 1656389 
3734.826 1668929 1675297 1674325 1666561 1653993 1639672 1626787 1617702 
3738.683 1613757 1614666 1618754 1623919 1628071 1630297 1630920 1631531 
3742.541 1634171 1640256 1650052 1662295 1674968 1685965 1694408 1700783 
3746.398 1706822 1714343 1724087 1735014 1744388 1748629 1744862 1732115 
3750.255 1712095 1688632 1666460 1649647 1640516 1638881 1643161 1650722 
3754.113 1659704 1669116 1678971 1689735 1701470 1713385 1723794 1730746 
3757.970 1732717 1729290 1721306 1710790 1700158 1691614 1686481 1685098 
3761.828 1686661 1689686 1692245 1692475 1688988 1681240 1669648 1655659 
3765.685 1641416 1629199 1620787 1616834 1616953 1619556 1622903 1625431 
3769.542 1626724 1627298 1628515 1631764 1637817 1646534 1656693 1666691 
3773.400 1675012 1680848 1684322 1686142 1687508 1689088 1691099 1693022 
3777.257 1693857 1692695 1688952 1682755 1674786 1666295 1658614 1652903 
3781.115 1649900 1649706 1651916 1655709 1660288 1664830 1669070 1672918 
3784.972 1676704 1680591 1684531 1687889 1689790 1689168 1685402 1678693 
3788.830 1670144 1661644 1655171 1652452 1654387 1660751 1670569 1682306 
3792.687 1694416 1705538 1714480 1720173 1721763 1718387 1709545 1695670 
3796.544 1678157 1659296 1641931 1628744 1621478 1620463 1624826 1632572 
3800.402 1641630 1650220 1657274 1662484 1665838 1667297 1666592 1663340 
3804.259 1657491 1649731 1641625 1635504 1633902 1638491 1649655 1665983 
3808.117 1684598 1702060 1715115 1721837 1721838 1716188 1706875 1696157 
3811.974 1685705 1676297 1668010 1660257 1652503 1644428 1636364 1628822 
3815.832 1622606 1618151 1615674 1614818 1615149 1616158 1617601 1619429 
3819.689 1621793 1624707 1627891 1630627 1632227 1631985 1629812 1626360 
3823.546 1623149 1622138 1625260 1633732 1647660 1665587 1684903 1702331 
3827.404 1714755 1720097 1717750 1708764 1695649 1681468 1669271 1661123 
3831.261 1657908 1659258 1663994 1670706 1678280 1686228 1694615 1703671 
3835.119 1713474 1723486 1732449 1738678 1740759 1737611 1729311 1716833 
3838.976 1701770 1686023 1671353 1659084 1650257 1645632 1645799 1651046 
3842.833 1661219 1675214 1691119 1706270 1717899 1723688 1722707 1715442 
3846.691 1703889 1690762 1678819 1669937 1664892 1663156 1663467 1664281 
3850.548 1664373 1663203 1660872 1658090 1655899 1655230 1656804 1660841 
3854.406 1666814 1673731 1680004 1684072 1684670 1681280 1674558 1665976 
3858.263 1657612 1651402 1648638 1649477 1653119 1658053 1662834 1666492 
3862.121 1668819 1670320 1671640 1673258 1675187 1677064 1678399 1678996 
3865.978 1679037 1679092 1679637 1680908 1682606 1683877 1684036 1682536 
3869.835 1679495 1675651 1671922 1669060 1667428 1666768 1666638 1666574 
3873.693 1666626 1667014 1668194 1670282 1672980 1675328 1676302 1674785 
3877.550 1670491 1663769 1655606 1647324 1640117 1634882 1632061 1631783 
3881.408 1633908 1638162 1643730 1649585 1654234 1656141 1654255 1648611 
3885.265 1640406 1631926 1625706 1623710 1626291 1632163 1638726 1643119 
3889.123 1643309 1639102 1632069 1625230 1621735 1623603 1631082 1642431 
3892.980 1654655 1664709 1670426 1671285 1668181 1663031 1657697 1653405 
3896.837 1650311 1647542 1644055 1638951 1632476 1625752 1620878 1619970 
3900.695 1624515 1634882 1650055 1667819 1685432 1700112 1710120 1714539 
3904.552 1713796 1709107 1701986 1694013 1686470 1680142 1675695 1673391 
3908.410 1673297 1675229 1678484 1681909 1684236 1684300 1681511 1676286 
3912.267 1669895 1664445 1661888 1663546 1669697 1679320 1690518 1701170 
3916.125 1709439 1714460 1716166 1715498 1713651 1711842 1711069 1711883 
3919.982 1714547 1719035 1725034 1732123 1739569 1746636 1752708 1757231 
3923.839 1760139 1761565 1761886 1761301 1759861 1757317 1753380 1748021 
3927.697 1741702 1735552 1730834 1728916 1730601 1735838 1743748 1752699 
3931.554 1760889 1766752 1769088 1767409 1761608 1751895 1738650 1722270 
3935.412 1703503 1683272 1662801 1643618 1627199 1614886 1607576 1605559 
3939.269 1608444 1615360 1624955 1635658 1646142 1655218 1662225 1666966 
3943.126 1669755 1671002 1671246 1670843 1670110 1669337 1668987 1669864 
3946.984 1672749 1678342 1686842 1697630 1709413 1720499 1729367 1735329 
3950.841 1738635 1740501 1742247 1745013 1749089 1753761 1757747 1759987 
3954.699 1760016 1758483 1756791 1756409 1758278 1762201 1767026 1770911 
3958.556 1772360 1770866 1767079 1762628 1759621 1759491 1762742 1768473 
3962.414 1774776 1779317 1779945 1775186 1764480 1748358 1728399 1706832 
3966.271 1686430 1670138 1660348 1658705 1665318 1678678 1696079 1714190 
3970.128 1730009 1741674 1748916 1752837 1755483 1758688 1763662 1770140 
3973.986 1777006 1782397 1784809 1783548 1779080 1772893 1766958 1763112 
3977.843 1762553 1765377 1770718 1777127 1782964 1786964 1788593 1788183 
3981.701 1786720 1785710 1786460 1789863 1796307 1805341 1816072 1827460 
3985.558 1838477 1848216 1855956 1860907 1862281 1859220 1851097 1837657 
3989.416 1819499 1798092 1775628 1754577 1737277 1725064 1718526 1716943 
3993.273 1718901 1722609 1726333 1728787 1729651 1729204 1728557 1729046 
3997.130 1732037 1738333 1747869 1759682 1772128 1783319 1791769 1796993 
##END=
