##TITLE=Tecor_PETG_White_Filament_r4_ATR-Corrected
##JCAMP-DX=5.01  $$ Nicolet v. 1
##DATATYPE=INFRARED SPECTRUM
##ORIGIN=Curtin University
##OWNER=Nicolet
##LONGDATE=2024/07/19
##TIME=09:21:00
##SPECTROMETER/DATA SYSTEM=Nicolet iS50
##DATA PROCESSING=
Ratio against background
%Transmittance->Absorbance
ATR Correction
Truncated
ElementMultiply or ElementDivide
##COMMENTS=
Number of sample scans: 32
Collection length: 47.27 sec
Sample gain: 1.0
Background collected on: Fri Jul 19 09:19:46 2024 (GMT+08:00);
Number of background scans: 32
Background gain: 1.0
Sample spacing:  1.000
Number of scan points: 16672
Resolution points: 8192
Number of FFT points: 65536
Apodization: N-B strong;
Phase correction: Mertz;
Laser frequency: 15798.3 cm-1
Number of rejected sample scans: 0
Number of rejected background scans: 0
Bench serial number: AUP1200105;
##RESOLUTION=4.000
##XUNITS=1/CM
##YUNITS=ABSORBANCE
##FIRSTX=400.163452
##LASTX=4000.187744
##FIRSTY=0.032354
##MAXX=4000.187744
##MINX=400.163452
##MAXY=1.543231
##MINY=-0.022843
##XFACTOR=1.000000
##YFACTOR=1.000000E-008
##NPOINTS=7468
##DELTAX=0.482125
##ZPD=8192
##XYDATA=(X++(Y..Y))
400.163 3235413 3247901 3283226 3340164 3415203 3501979 3592644 3679819 
404.020 3757878 3823321 3873963 3907668 3921800 3913551 3881372 3826630 
407.877 3754731 3674991 3599224 3539291 3504251 3498109 3518810 3558814 
411.734 3607005 3651359 3681488 3690759 3677538 3645582 3603633 3563557 
415.591 3537960 3536940 3565447 3621671 3697316 3779676 3855120 3912841 
419.448 3947755 3961369 3960598 3954880 3952618 3958508 3972270 3989413 
423.305 4003377 4008263 4001099 3982920 3958302 3933869 3916172 3910085 
427.162 3917817 3938873 3970831 4010253 4053642 4097825 4140126 4178220 
431.019 4209992 4233411 4246693 4248243 4237746 4215793 4184372 4147009 
434.876 4108493 4074316 4049632 4038119 4040776 4055428 4076906 4098327 
438.733 4112898 4115980 4106458 4087067 4063465 4042231 4028545 4024376 
442.590 4027782 4033706 4035962 4029516 4012366 3986190 3955736 3927039 
446.447 3905410 3893667 3891493 3895796 3902102 3906180 3905254 3898531 
450.304 3886836 3871813 3855018 3837327 3818960 3799866 3780251 3761107 
454.161 3744098 3731206 3723964 3722842 3726823 3733630 3740282 3743981 
458.017 3742933 3736791 3726573 3714169 3701596 3690296 3680884 3673227 
461.874 3667042 3662431 3660395 3662632 3671325 3687935 3712368 3742454 
465.731 3773991 3801553 3819772 3824690 3814896 3791979 3760204 3725557 
469.588 3694429 3672288 3662708 3666859 3683464 3709218 3739505 3769322 
473.445 3794294 3811556 3820372 3822285 3820710 3820013 3824361 3836477 
477.302 3856964 3884047 3914260 3943447 3968121 3986446 3998723 4007178 
481.159 4015245 4026445 4043414 4067253 4097432 4132152 4169016 4205857 
485.016 4241363 4275428 4309047 4343927 4381837 4423967 4470487 4520502 
488.873 4572401 4624487 4675765 4726419 4777971 4832949 4894196 4964070 
492.730 5043895 5133710 5232559 5338935 5451345 5568525 5689423 5812866 
496.587 5937169 6059986 6178367 6289153 6389472 6477099 6550482 6608572 
500.444 6650429 6674956 6680825 6666710 6631631 6575303 6498287 6401947 
504.301 6288256 6159638 6018972 5869713 5716060 5562898 5415470 5278643 
508.158 5156099 5049604 4958705 4880950 4812718 4750301 4690907 4633325 
512.015 4577975 4526464 4480811 4442586 4412341 4389422 4372084 4357967 
515.871 4344579 4329848 4312369 4291613 4267811 4241824 4214816 4188001 
519.728 4162374 4138555 4116744 4096794 4078323 4060845 4043778 4026479 
523.585 4008162 3987969 3965026 3938732 3908846 3875703 3840146 3803300 
527.442 3766213 3729572 3693511 3657671 3621434 3584238 3545823 3506273 
531.299 3465935 3425181 3384277 3343353 3302559 3262251 3223163 3186360 
535.156 3153038 3124081 3099757 3079543 3062177 3046044 3029609 3011779 
539.013 2992153 2970913 2948658 2926059 2903662 2881723 2860278 2839196 
542.870 2818323 2797574 2776975 2756685 2736979 2718195 2700618 2684352 
546.727 2669125 2654261 2638668 2621170 2600831 2577386 2551518 2524771 
550.584 2499213 2476838 2458908 2445573 2435867 2428100 2420545 2412100 
554.441 2402706 2393277 2385302 2380173 2378404 2379384 2381383 2382006 
558.298 2378891 2370422 2356164 2337020 2314947 2292466 2272048 2255621 
562.155 2244236 2237974 2236109 2237340 2240137 2242987 2244668 2244391 
566.012 2241910 2237582 2232390 2227849 2225825 2228131 2236078 2249901 
569.869 2268439 2289066 2308087 2321518 2326120 2320331 2304801 2282352 
573.725 2257176 2233763 2215605 2204364 2199636 2199409 2201024 2202221 
577.582 2201890 2200345 2198882 2199138 2202281 2208547 2217196 2226893 
581.439 2236249 2244330 2250906 2256359 2261372 2266560 2272257 2278447 
585.296 2284935 2291568 2298393 2305646 2313575 2322232 2331244 2339759 
589.153 2346559 2350349 2350105 2345415 2336693 2325176 2312706 2301350 
593.010 2292877 2288336 2287735 2290041 2293473 2296043 2296206 2293353 
596.867 2288056 2281824 2276580 2273946 2274630 2278185 2283146 2287554 
600.724 2289673 2288527 2284230 2277838 2270945 2265141 2261582 2260784 
604.581 2262677 2266798 2272549 2279390 2286829 2294416 2301667 2308064 
608.438 2313096 2316424 2317919 2317816 2316624 2315137 2314361 2315478 
612.295 2319707 2328174 2341638 2360228 2383200 2408907 2435019 2459030 
616.152 2478922 2493642 2503453 2509755 2514624 2520131 2527656 2537639 
620.009 2549608 2562591 2575713 2588719 2602143 2617249 2635532 2658175 
623.866 2685594 2717247 2751899 2788236 2825705 2865328 2910156 2965196 
627.723 3036524 3129762 3248169 3390677 3550678 3715804 3869228 3992392 
631.579 4068686 4087090 4044784 3947873 3809963 3649179 3484405 3331961 
635.436 3203283 3104103 3034818 2991836 2969294 2960693 2960175 2963298 
639.293 2967289 2971034 2974727 2979420 2986515 2997169 3011948 3030607 
643.150 3052194 3075384 3098983 3122331 3145443 3168863 3193289 3219058 
647.007 3245898 3272917 3298970 3323177 3345384 3366389 3387763 3411373 
650.864 3438845 3471009 3507810 3548337 3591222 3634971 3678241 3719867 
654.721 3758775 3793823 3823783 3847487 3864134 3873606 3876734 3875284 
658.578 3871751 3868948 3869560 3875733 3888871 3909514 3937534 3972229 
662.435 4012609 4057540 4105980 4156975 4209799 4263869 4318709 4373866 
666.292 4428889 4483286 4536668 4588891 4640194 4691351 4743549 4798234 
670.149 4856758 4920074 4988499 5061748 5139125 5219899 5303690 5390731 
674.006 5481816 5577964 5679929 5787617 5899746 6013752 6126172 6233194 
677.863 6331356 6418100 6491994 6552668 6600485 6636142 6660434 6674210 
681.720 6678617 6675385 6667020 6656839 6648536 6645660 6650990 6666076 
685.577 6691055 6724898 6765886 6812197 6862439 6915926 6972787 7033827 
689.433 7100290 7173649 7255456 7347198 7450258 7565800 7694800 7838041 
693.290 7996186 8170005 8360514 8569063 8797189 9046351 9317396 9610028 
697.147 9922536 10251748 10593426 10942894 11295806 11648760 11999621 
700.522 12347544 12692639 13035630 13377449 13719052 14061323 14405029 
703.897 14750734 15098730 15448916 15800801 16153672 16507049 16861176 
707.272 17217514 17579086 17950492 18337632 18747322 19186878 19663952 
710.647 20186668 20763990 21406286 22125856 22937400 23858004 24906934 
714.021 26104882 27472994 29031656 30799120 32790246 35015272 37478840 
717.396 40179140 43107136 46245812 49568700 53037984 56600596 60182852 
720.771 63683696 66968708 69869224 72192616 73748824 74390480 74052968 
724.146 72775248 70688624 67981384 64857052 61502744 58071936 54679840 
727.521 51405300 48296456 45377176 42653476 40119572 37762780 35567364 
730.896 33516840 31595102 29786616 28076146 26448674 24889708 23386014 
734.270 21926738 20504388 19115406 17760246 16442816 15169491 13947946 
737.645 12786004 11690750 10667782 9720905 8852004 8061135 7346789 6706201 
741.502 6135753 5631199 5187951 4801213 4466101 4177667 3930883 3720653 
745.359 3541811 3389235 3257960 3143422 3041678 2949669 2865380 2787909 
749.216 2717299 2654291 2599904 2554985 2519875 2494230 2477049 2466953 
753.073 2462533 2462734 2467041 2475531 2488592 2506535 2529214 2555736 
756.930 2584459 2613205 2639756 2662328 2680010 2692882 2701963 2708782 
760.787 2714974 2721805 2729968 2739552 2750244 2761644 2773544 2786119 
764.644 2799912 2815689 2834200 2855956 2881173 2909681 2941050 2974621 
768.501 3009530 3044655 3078531 3109338 3135076 3153859 3164410 3166489 
772.358 3161238 3151109 3139438 3129765 3125011 3126825 3135262 3149001 
776.214 3165872 3183699 3201080 3217849 3235174 3255210 3280456 3313107 
780.071 3354546 3405198 3464646 3532054 3606636 3688018 3776387 3872401 
783.928 3976947 4090824 4214602 4348600 4493099 4648620 4816198 4997431 
787.785 5194248 5408387 5640644 5889997 6152906 6422811 6690075 6942309 
791.642 7165207 7343755 7463729 7513370 7484959 7376209 7190993 6939460 
795.499 6637188 6303654 5960070 5627003 5322219 5059010 4845376 4683927 
799.356 4572719 4506328 4477343 4477706 4499725 4536736 4583418 4635758 
803.213 4691035 4747486 4804073 4860233 4915626 4969915 5022721 5073626 
807.070 5122270 5168554 5212666 5255049 5296167 5336170 5374619 5410436 
810.927 5442077 5467947 5486940 5498910 5504815 5506521 5506358 5506506 
814.784 5508457 5512736 5518969 5526161 5533200 5539209 5543852 5547349 
818.641 5550365 5553789 5558549 5565450 5575036 5587659 5603407 5622155 
822.498 5643626 5667412 5693118 5720468 5749373 5780045 5812892 5848546 
826.355 5887633 5930724 5978225 6030280 6086847 6147681 6212401 6280592 
830.212 6351916 6426192 6503561 6584440 6669584 6759833 6855912 6958201 
834.068 7066475 7179853 7296778 7415221 7532906 7647586 7757267 7860351 
837.925 7955837 8043336 8123168 8196319 8264320 8328975 8392013 8454634 
841.782 8517196 8579035 8638554 8693543 8741799 8781562 8812067 8833645 
845.639 8847740 8856484 8862323 8867484 8873650 8881734 8891942 8903860 
849.496 8916754 8929811 8942395 8954208 8965390 8976450 8988231 9001702 
853.353 9017825 9037505 9061417 9090094 9123980 9163483 9209049 9261228 
857.210 9320622 9387930 9463892 9549322 9645120 9752253 9871805 10004961 
861.067 10153002 10317361 10499792 10702534 10928570 11181702 11466672 
864.442 11788882 12154014 12567432 13033520 13555002 14132363 14763324 
867.817 15442501 16161005 16906154 17661410 18406458 19117860 19770064 
871.191 20337208 20795124 21123748 21309006 21344314 21230918 20977374 
874.566 20598098 20111408 19537588 18897074 18209080 17490700 16756523 
877.941 16018510 15286312 14567654 13868916 13195528 12552246 11943264 
881.316 11371996 10840975 10351557 9903987 9497509 9130602 8801336 8507597 
885.173 8247187 8017833 7817162 7642685 7491831 7362094 7251174 7157056 
889.030 7078044 7012701 6959741 6917944 6886247 6863716 6849708 6843813 
892.887 6845773 6855194 6871371 6893027 6918432 6945543 6972392 6997385 
896.744 7019423 7037865 7052245 7061936 7065955 7062945 7051449 7030347 
900.601 6999202 6958504 6909518 6853944 6793463 6729361 6662346 6592688 
904.458 6520461 6445897 6369530 6292185 6214740 6137808 6061597 5985836 
908.314 5910049 5833885 5757490 5681663 5607821 5537633 5472615 5413716 
912.171 5361090 5314144 5271873 5233252 5197721 5165369 5136963 5113718 
916.028 5096861 5087285 5085197 5090119 5101010 5116608 5135830 5158029 
919.885 5183176 5211765 5244568 5282354 5325593 5374354 5428302 5486902 
923.742 5549626 5616070 5686052 5759459 5836047 5915265 5996120 6077325 
927.599 6157496 6235480 6310643 6382951 6452868 6521110 6588232 6654403 
931.456 6719215 6781857 6841371 6897028 6948609 6996554 7041787 7085480 
935.313 7128593 7171640 7214440 7256268 7296045 7332737 7365653 7394601 
939.170 7419879 7442078 7461851 7479638 7495585 7509624 7521696 7532035 
943.027 7541384 7551129 7563152 7579658 7602862 7634639 7676369 7728775 
946.884 7791958 7865422 7948196 8038945 8136094 8238023 8343184 8450385 
950.741 8558869 8668497 8779730 8893543 9011237 9134300 9264161 9402051 
954.598 9548995 9705625 9872264 10048907 10235203 10430714 10634869 10847253 
958.455 11067732 11296431 11533621 11779500 12033865 12295922 12564109 
961.829 12836173 13109371 13380817 13647723 13907649 14158581 14398935 
965.204 14627485 14843370 15045993 15235053 15410469 15572323 15720731 
968.579 15855742 15977211 16084814 16178012 16256075 16318142 16363274 
971.954 16390458 16398820 16387711 16357039 16307303 16239649 16155675 
975.329 16056977 15944789 15819567 15680924 15527834 15359150 15174185 
978.703 14973094 14757149 14528516 14289762 14043370 13791350 13535056 
982.078 13275373 13013080 12749173 12485094 12222747 11964274 11711781 
985.453 11467140 11231841 11007111 10793991 10593522 10406761 10234604 
988.828 10077707 9936415 9810644 9700076 9604336 9523170 9456560 9404706 
992.685 9367858 9346075 9339195 9346651 9367649 9401298 9446860 9503872 
996.542 9572247 9652170 9743998 9848036 9964357 10092703 10232442 10382690 
1000.399 10542616 10711737 10890239 11079349 11281345 11499610 11738355 
1003.774 12002331 12296517 12625934 12995522 13410211 13875094 14395596 
1007.148 14977643 15627965 16354397 17166264 18074932 19094142 20240032 
1010.523 21530528 22983854 24615868 26436562 28445530 30626988 32944846 
1013.898 35338504 37720832 39979624 41984484 43599956 44703864 45207436 
1017.273 45071180 44311316 42994664 41224548 39122808 36813296 34409724 
1020.648 32008630 29686496 27499956 25487530 23672170 22064072 20663308 
1024.022 19462272 18447876 17603346 16909852 16347855 15898176 15542823 
1027.398 15265681 15052830 14892632 14775679 14694412 14642809 14615971 
1030.773 14609863 14621176 14647302 14686330 14737059 14798789 14871158 
1034.148 14953832 15046321 15147838 15257375 15373784 15495959 15622905 
1037.523 15753739 15887548 16023242 16159412 16294158 16425155 16549693 
1040.899 16664875 16767734 16855522 16925916 16977266 17008876 17021054 
1044.274 17015148 16993282 16958014 16911914 16857166 16795356 16727486 
1047.649 16654105 16575719 16493031 16407101 16319481 16231950 16146478 
1051.024 16064928 15989020 15920304 15860182 15809926 15770689 15743430 
1054.400 15728901 15727553 15739612 15765309 15804993 15859418 15929765 
1057.775 16017629 16124921 16253550 16405320 16581669 16783628 17011792 
1061.150 17266386 17547252 17854102 18186528 18544250 18927286 19336032 
1064.525 19771350 20234428 20726622 21249260 21803444 22390054 23009804 
1067.901 23663512 24352278 25077632 25841612 26646588 27494956 28388930 
1071.276 29330200 30319818 31358180 32445198 33580460 34763516 35994036 
1074.651 37271660 38595892 39965524 41378208 42829988 44315068 45825892 
1078.026 47353672 48889024 50422700 51946132 53451716 54932820 56383472 
1081.402 57798356 59172736 60502828 61786236 63022540 64213728 65363944 
1084.777 66479380 67567360 68635288 69689832 70736112 71777376 72815040 
1088.152 73848936 74877616 75898656 76908584 77902576 78874120 79814680 
1091.527 80713768 81559184 82337848 83036464 83642416 84144216 84531752 
1094.903 84796448 84931192 84930488 84790512 84509168 84085992 83522000 
1098.278 82819512 81982168 81014936 79924416 78718808 77407768 76001680 
1101.653 74511128 72946560 71318312 69637224 67915888 66169320 64415608 
1105.028 62675792 60973132 59332084 57777400 56333180 55022276 53865528 
1108.404 52880792 52081828 51476908 51067508 50847452 50802572 50911172 
1111.779 51145052 51471264 51853900 52256256 52642752 52980812 53242440 
1115.154 53405392 53453968 53379132 53177804 52851880 52406776 51850016 
1118.529 51190428 50437552 49601500 48692904 47722732 46701908 45640768 
1121.905 44548656 43433788 42303436 41164200 40022412 38884248 37755540 
1125.280 36641540 35546528 34473816 33425864 32404708 31412396 30451164 
1128.655 29523418 28631428 27776876 26960518 26182020 25440114 24733066 
1132.030 24058840 23415568 22801648 22215592 21655986 21121242 20609506 
1135.406 20118664 19646404 19190344 18748172 18317808 17897556 17486174 
1138.781 17082966 16687685 16300482 15921634 15551397 15189852 14836840 
1142.156 14492151 14155540 13826960 13506581 13194633 12891361 12596744 
1145.531 12310504 12032125 11761065 11496937 11239720 10989603 10746957 
1148.906 10511994 10284605 10064290 9850213 9641530 9437646 9238392 9044214 
1152.764 8855990 8674820 8501840 8338051 8184204 8040865 7908353 7786832 
1156.621 7676174 7575898 7485226 7403125 7328574 7260865 7199796 7145876 
1160.479 7100216 7064315 7039768 7028001 7030263 7047679 7081572 7133648 
1164.336 7206188 7301861 7423480 7573357 7752865 7961915 8198707 8459695 
1168.194 8739667 9031981 9328912 9621996 9902501 10161990 10392813 10588662 
1172.051 10744953 10858966 10929747 10957890 10945134 10894038 10807652 
1175.426 10689387 10542893 10372067 10180991 9973939 9755203 9529067 9299713 
1179.284 9071144 8847149 8631307 8426876 8236763 8063399 7908674 7773921 
1183.141 7659902 7566920 7494886 7443404 7411765 7398997 7403858 7424894 
1186.999 7460616 7509643 7570915 7643847 7728275 7824420 7932565 8052908 
1190.856 8185270 8329114 8483588 8647722 8820629 9001702 9190629 9387298 
1194.713 9591599 9803257 10021643 10245831 10474699 10707161 10942484 
1198.089 11180336 11420900 11664686 11912353 12164486 12421446 12683389 
1201.464 12950374 13222490 13500004 13783447 14073479 14370835 14676154 
1204.839 14989939 15312600 15644531 15986310 16338705 16702747 17079592 
1208.214 17470438 17876386 18298416 18737518 19194766 19671484 20169272 
1211.590 20689950 21235396 21807272 22406832 23034786 23691388 24376524 
1214.965 25089962 25831660 26601910 27401420 28231228 29092472 29986202 
1218.340 30913004 31872946 32865486 33889556 34943948 36027568 37139680 
1221.715 38280108 39449268 40647988 41877316 43138272 44431800 45758748 
1225.091 47119908 48516264 49949148 51420344 52932220 54487596 56089564 
1228.466 57741152 59444928 61202556 63014388 64879400 66795196 68758432 
1231.841 70764992 72810192 74888600 76993656 79116872 81247512 83372464 
1235.216 85476696 87544080 89558240 91502896 93361880 95118568 96755616 
1238.592 98255088 99599600 100773800 101766240 102570152 103183528 103608320 
1241.967 103849288 103913448 103810080 103551008 103150904 102626800 
1244.860 101996864 101278928 100489056 99641296 98748200 97821816 96874704 
1248.235 95920192 94972168 94043872 93147176 92291936 91486000 90735712 
1251.610 90046288 89421808 88865072 88376800 87955400 87596688 87294320 
1254.986 87040368 86825832 86640752 86473680 86311200 86137456 85934376 
1258.361 85682864 85364384 84962896 84466320 83867440 83163672 82356808 
1261.736 81452128 80457808 79384216 78243112 77046688 75806680 74533416 
1265.111 73235688 71920936 70596064 69268184 67945024 66634776 65345456 
1268.487 64083904 62855220 61662472 60507136 59389752 58310628 57270140 
1271.862 56268752 55306512 54382604 53495120 52641092 51816940 51018900 
1275.237 50243564 49488028 48749792 48026656 47316464 46617248 45927168 
1278.612 45244800 44569124 43899460 43235248 42575772 41920120 41267176 
1281.988 40615928 39965672 39316200 38667772 38020892 37376036 36733268 
1285.363 36092208 35452068 34811824 34170456 33527104 32881162 32232284 
1288.738 31580358 30925498 30268088 29608796 28948612 28288784 27630740 
1292.113 26975894 26325574 25680902 25042788 24412022 23789318 23175510 
1295.489 22571586 21978938 21399264 20834776 20288094 19762150 19260000 
1298.864 18784628 18338702 17924332 17542774 17194272 16877850 16591227 
1302.239 16330804 16091809 15868616 15655194 15445702 15235034 15019314 
1305.614 14796187 14564799 14325671 14080228 13830449 13578446 13326199 
1308.990 13075466 12827668 12583955 12345213 12112002 11884683 11663391 
1312.365 11448172 11239118 11036431 10840460 10651558 10469920 10295350 
1315.740 10127093 9963891 9804036 9645829 9487808 9329095 9169514 9009413 
1319.597 8849518 8690671 8533544 8378682 8226528 8077650 7932845 7793271 
1323.455 7660389 7535834 7421276 7318413 7229040 7155177 7099360 7064670 
1327.312 7054791 7073829 7126038 7215563 7346163 7521219 7743589 8015637 
1331.170 8339054 8714572 9141556 9617357 10136914 10692190 11272103 11862630 
1335.027 12447359 13008392 13527630 13988146 14375430 14678413 14889939 
1338.402 15006840 15029629 14962052 14810464 14583375 14290783 13943602 
1341.778 13553081 13130115 12684812 12226082 11761531 11297529 10839397 
1345.153 10391688 9958334 9542782 9147924 8776010 8428498 8105997 7808414 
1349.010 7535102 7285151 7057638 6851718 6666653 6501642 6355829 6228181 
1352.868 6117648 6023264 5944388 5880705 5832210 5799027 5781224 5778715 
1356.725 5791303 5818907 5861877 5921216 5998879 6097584 6220728 6372020 
1360.583 6555067 6773063 7028482 7322695 7655838 8026577 8432093 8868169 
1364.440 9329412 9809546 10301847 10799306 11294900 11781543 12252023 
1367.815 12699015 13115011 13492624 13824987 14106330 14332582 14501838 
1371.190 14614521 14673197 14682105 14646477 14571917 14463918 14327617 
1374.566 14167722 13988471 13793580 13586086 13368240 13141391 12906060 
1377.941 12662219 12409659 12148436 11879176 11603201 11322478 11039455 
1381.316 10756778 10477164 10203223 9937412 9682021 9439122 9210505 8997608 
1385.174 8801474 8622764 8461752 8318519 8193092 8085590 7996359 7925959 
1389.031 7875113 7844628 7835194 7847260 7881126 7936936 8014914 8115620 
1392.888 8240036 8389822 8567235 8775112 9016719 9295484 9614722 9977242 
1396.746 10384954 10838410 11336550 11876597 12454329 13064720 13702938 
1400.121 14365305 15050206 15758528 16493411 17259492 18061304 18901462 
1403.496 19778488 20684906 21605688 22517582 23389422 24183666 24859082 
1406.872 25374212 25691352 25780470 25622504 25211728 24556680 23679588 
1410.247 22614258 21402792 20091460 18726694 17351514 16002896 14710294 
1413.622 13495225 12371562 11346500 10421773 9594979 8860862 8212419 7641788 
1417.479 7141070 6702601 6319451 5985370 5694826 5442849 5224903 5036813 
1421.337 4874711 4735223 4615615 4513895 4428883 4360042 4307173 4270189 
1425.194 4248810 4242507 4250602 4272475 4307734 4356268 4418165 4493441 
1429.052 4581793 4682494 4794363 4915983 5045948 5183001 5326169 5474522 
1432.909 5627083 5782523 5939095 6094657 6246892 6393509 6532605 6662778 
1436.767 6783271 6893892 6994883 7086765 7170306 7246314 7315759 7379722 
1440.624 7439425 7496200 7551426 7606493 7662684 7721199 7783051 7849093 
1444.481 7919987 7996168 8077933 8165430 8258689 8357636 8462096 8571741 
1448.339 8686002 8803979 8924486 9046002 9166747 9284732 9397916 9504255 
1452.196 9601837 9688972 9764314 9826963 9876510 9913055 9937161 9949829 
1456.054 9952210 9945463 9930442 9907531 9876554 9836921 9787871 9728917 
1459.911 9660042 9582016 9496295 9404921 9310251 9214700 9120630 9030227 
1463.769 8945603 8868912 8802334 8748205 8708918 8686951 8684749 8704655 
1467.626 8748657 8818148 8913530 9034019 9177303 9339520 9515311 9698109 
1471.483 9880364 10054052 10210965 10343194 10443360 10505004 10522682 
1474.859 10492255 10411064 10278160 10094478 9862717 9587326 9274038 8929522 
1478.716 8560950 8175651 7780931 7383857 6991024 6608324 6240633 5891652 
1482.573 5563752 5258164 4975100 4714129 4474416 4254969 4054662 3872390 
1486.431 3707043 3557476 3422601 3301376 3192814 3096071 3010428 2935314 
1490.288 2870378 2815457 2770620 2736101 2712240 2699467 2698213 2708929 
1494.146 2732080 2768223 2818023 2882375 2962402 3059705 3176540 3316109 
1498.003 3482841 3682450 3921584 4207047 4544356 4935892 5378872 5863728 
1501.861 6373217 6882756 7362038 7778030 8098750 8297536 8357034 8272052 
1505.718 8050670 7713136 7288602 6810452 6311372 5819265 5354865 4931184 
1509.575 4554331 4225290 3941758 3699837 3495168 3323518 3180947 3063749 
1513.433 2968362 2891282 2829210 2779167 2738756 2706205 2680404 2660736 
1517.290 2646806 2638288 2634691 2635302 2639257 2645676 2653714 2662738 
1521.148 2672299 2682071 2691792 2701190 2709894 2717510 2723621 2727836 
1525.005 2729867 2729582 2726883 2721784 2714306 2704429 2692086 2677168 
1528.863 2659509 2638922 2615217 2588286 2558153 2525138 2489817 2453181 
1532.720 2416468 2381096 2348274 2318858 2293120 2270655 2250662 2232125 
1536.577 2214156 2196311 2178602 2161487 2145613 2131580 2119669 2109863 
1540.435 2101875 2095320 2089938 2085642 2082488 2080460 2079401 2078922 
1544.292 2078521 2077782 2076671 2075671 2075716 2077997 2083450 2092542 
1548.150 2104948 2119640 2135150 2150046 2163273 2174450 2183858 2192147 
1552.007 2200080 2208209 2216797 2225751 2234935 2244248 2253770 2263789 
1555.865 2274673 2286776 2300308 2315339 2331851 2349810 2369169 2389883 
1559.722 2411841 2434869 2458728 2483162 2508064 2533554 2559960 2587824 
1563.579 2617750 2650314 2685960 2725024 2767823 2814718 2866209 2922951 
1567.437 2985763 3055563 3133371 3220262 3317368 3425847 3546773 3681028 
1571.294 3829104 3991081 4166503 4354406 4553225 4760670 4973465 5187050 
1575.152 5395388 5590984 5765487 5910317 6017755 6081777 6098529 6066642 
1579.009 5987093 5863005 5699492 5503315 5282634 5046462 4804007 4563892 
1582.866 4333512 4118468 3922475 3747372 3593475 3460036 3345561 3248207 
1586.724 3165884 3096382 3037517 2987081 2943056 2903685 2867672 2834089 
1590.581 2802445 2772481 2744174 2717629 2693096 2671015 2651978 2636710 
1594.439 2625929 2620230 2619984 2625301 2636082 2652153 2673258 2699203 
1598.296 2729710 2764449 2802992 2844898 2889814 2937691 2988817 3043834 
1602.154 3103500 3168514 3239151 3315243 3396115 3480810 3568225 3657374 
1606.011 3747305 3837134 3925899 4012601 4096209 4175925 4251311 4322425 
1609.868 4389703 4453682 4514573 4571874 4624066 4668686 4702477 4721914 
1613.726 4723680 4705322 4665619 4605056 4525801 4431715 4327765 4219426 
1617.583 4111795 4009075 3914100 3828353 3752368 3686019 3629107 3581435 
1621.441 3542897 3513328 3492289 3478891 3471845 3469626 3470645 3473569 
1625.298 3477384 3481403 3485283 3488808 3491949 3494779 3497544 3500621 
1629.156 3504492 3509621 3516284 3524575 3534240 3544923 3556141 3567548 
1633.013 3578982 3590479 3602234 3614482 3627429 3641165 3655670 3670820 
1636.870 3686459 3702351 3718312 3734193 3749932 3765561 3781151 3796867 
1640.728 3812807 3829004 3845393 3861874 3878338 3894785 3911476 3928823 
1644.585 3947462 3968081 3991298 4017616 4047162 4079838 4115183 4152525 
1648.443 4191083 4230100 4269047 4307781 4346552 4386079 4427377 4471418 
1652.300 4519031 4570581 4626017 4685028 4747312 4812934 4882369 4956601 
1656.157 5036843 5124200 5219449 5322852 5434212 5553036 5678700 5810743 
1660.015 5948999 6093545 6244667 6402712 6567931 6740411 6919901 7105872 
1663.872 7297536 7493993 7694392 7898105 8104732 8314138 8526085 8740269 
1667.730 8956029 9172484 9388760 9604318 9819305 10034591 10251523 10471663 
1671.587 10696274 10926098 11161480 11402567 11649687 11903610 12165396 
1674.962 12436192 12716679 13006833 13305879 13612668 13925990 14245088 
1678.338 14569493 14898942 15232846 15570167 15909404 16249169 16588707 
1681.713 16928366 17269584 17614366 17964538 18320960 18683240 19050148 
1685.088 19420512 19794158 20172540 20558796 20957100 21371870 21807020 
1688.463 22265756 22750792 23264684 23810246 24390662 25009256 25669184 
1691.839 26373536 27125754 27930382 28793666 29723600 30729004 31818048 
1695.214 32996592 34267412 35631160 37088524 38643384 40304924 42088280 
1698.589 44012540 46097148 48358012 50804692 53440268 56264008 59275700 
1701.964 62479680 65886404 69510760 73367888 77468048 81812552 86392104 
1705.340 91187416 96170968 101308552 106558872 111871848 117186752 122432376 
1708.715 127530040 132398416 136957936 141132192 144847360 148030544 
1711.608 150612992 152538368 153774656 154323104 154219120 153522688 
1714.501 152303920 150629488 148556608 146134720 143411968 140440240 
1717.394 137276448 133978440 130598368 127177560 123745072 120319736 
1720.287 116914712 113541224 110210816 106934944 103723432 100583016 
1723.180 97516856 94525256 91607336 88762368 85990360 83291520 80665472 
1726.555 78110400 75622952 73198960 70834640 68527416 66276412 64081736 
1729.931 61943440 59860296 57829084 55844672 53900796 51991284 50111412 
1733.306 48258748 46433248 44636784 42872092 41141572 39446492 37786728 
1736.681 36160968 34567532 33004958 31472880 29972190 28505036 27074460 
1740.056 25683838 24336450 23035192 21782512 20580450 19430784 18335102 
1743.432 17294778 16310945 15384358 14515339 13703562 12947971 12246657 
1746.807 11596919 10995455 10438753 9923505 9447015 9007183 8602499 8231459 
1750.664 7892123 7581966 7297833 7036287 6794322 6569560 6360608 6166680 
1754.522 5987278 5821865 5669442 5528730 5398354 5276935 5163459 5057018 
1758.379 4956781 4861723 4770642 4682541 4596677 4513062 4432325 4355685 
1762.237 4284312 4219071 4159981 4106307 4056784 4009879 3964271 3918900 
1766.094 3873082 3826417 3778767 3730211 3681218 3632641 3585752 3541906 
1769.951 3502296 3467460 3437075 3409968 3384335 3358328 3330378 3299846 
1773.809 3267061 3233168 3199898 3169038 3142029 3119574 3101611 3087167 
1777.666 3074801 3062926 3050311 3036331 3021150 3005441 2990132 2975732 
1781.524 2962179 2948602 2933701 2916201 2895381 2871478 2845673 2819784 
1785.381 2795637 2774569 2757047 2742573 2730093 2718265 2705979 2692656 
1789.239 2678107 2662584 2646467 2630208 2614135 2598504 2583494 2569178 
1793.096 2555662 2542994 2531224 2520315 2510206 2500645 2491173 2481020 
1796.953 2469198 2454925 2437716 2417993 2396999 2376693 2359271 2346225 
1800.811 2337982 2333510 2330549 2326411 2318727 2306296 2289318 2269307 
1804.668 2248441 2228924 2212422 2199841 2191411 2186904 2185923 2187868 
1808.526 2191840 2196671 2200771 2202572 2200901 2195274 2186145 2174660 
1812.383 2162141 2149505 2137000 2124300 2110754 2096216 2081345 2067828 
1816.240 2057870 2053653 2056379 2066018 2081118 2099440 2118530 2136409 
1820.098 2151796 2164008 2172637 2177263 2177430 2172780 2163434 2150100 
1823.955 2133948 2116611 2099274 2082591 2066423 2049940 2032173 2012264 
1827.813 1989983 1965734 1940530 1915688 1892559 1872374 1855879 1843370 
1831.670 1834334 1827674 1821569 1814032 1803167 1787910 1768397 1745952 
1835.528 1722879 1701752 1684585 1672259 1664244 1658961 1654296 1648323 
1839.385 1639828 1628461 1614476 1598390 1580699 1561534 1540995 1519218 
1843.242 1496744 1474571 1453922 1435845 1420929 1408995 1399235 1390511 
1847.100 1381734 1372305 1362155 1351766 1341820 1333011 1325755 1320230 
1850.957 1316322 1313921 1312866 1312747 1312851 1312100 1308814 1301131 
1854.815 1287362 1266675 1239270 1206834 1172048 1138070 1107776 1083013 
1858.672 1064297 1050987 1041647 1034875 1029817 1026355 1024922 1025856 
1862.530 1028716 1032039 1033257 1029546 1018689 1000101 975403 948285 
1866.387 923570 906042 898994 903238 916967 936174 956010 972092 981750 
1870.727 984851 983310 980576 980295 984843 994758 1008200 1021606 1030674 
1875.066 1031795 1023231 1005752 982523 958199 937633 924249 919236 921153 
1879.406 926724 931958 933785 931074 925090 918839 915902 918918 928317 
1883.745 942039 956156 966137 968400 961612 947240 928944 911533 899327 
1888.085 894928 898585 908307 920890 933025 942614 949110 953771 958644 
1892.425 966050 977453 993111 1011854 1031462 1049203 1062096 1067724 
1896.282 1064215 1050564 1026768 994063 954789 912339 870710 833970 805409 
1900.622 787098 779528 781780 791769 806851 824465 842181 858182 870922 
1904.961 879365 883027 882114 877588 871195 865003 860859 859569 860681 
1909.301 862420 862196 857624 847408 832110 814101 797097 785008 780976 
1913.640 786582 801295 823277 850121 879637 910409 942076 974708 1008206 
1917.980 1041643 1072895 1098795 1116052 1121858 1115065 1096514 1069019 
1921.837 1036658 1003946 974543 950917 933699 922342 915513 912021 911257 
1926.177 913175 918225 926550 937696 950219 962162 971209 975416 973971 
1930.517 967265 957094 946310 938448 937290 945626 964755 993811 1029360 
1934.856 1066252 1098436 1121177 1132256 1133208 1128539 1124239 1125040 
1938.714 1132481 1143749 1153024 1154027 1143201 1122183 1098324 1082568 
1942.571 1085738 1114203 1167147 1236272 1308327 1369023 1407419 1418429 
1946.428 1403304 1367436 1317947 1261289 1201851 1142545 1086135 1035869 
1950.286 995919 969572 958257 959874 969388 979326 983104 975659 955435 
1954.625 922844 879863 828395 770641 709447 649639 598896 566502 560436 
1958.965 584208 633668 696757 756503 796697 807494 789708 754414 719295 
1963.305 703210 718979 769897 849894 944784 1038613 1116913 1170323 1195253 
1967.644 1192419 1164850 1116274 1050607 972793 889141 807897 738270 688451 
1971.984 663621 664231 685918 720847 760552 798082 830942 861959 898315 
1976.323 949321 1024201 1127667 1257901 1406116 1558458 1698373 1810899 
1980.181 1884789 1913405 1895597 1834821 1738582 1618003 1486685 1358943 
1984.038 1248427 1165581 1116741 1102579 1119150 1158682 1211970 1270449 
1987.896 1326734 1375800 1413689 1436627 1440528 1421274 1376127 1304978 
1991.753 1212067 1105197 994875 891332 802084 730626 675330 631008 591641 
1996.093 551720 509736 467093 428694 400654 389091 397155 424588 466384 
2000.432 513441 552940 571166 556377 501430 407435 283850 147991 21638 
2004.772 -73831 -122400 -116809 -60633 34274 151212 274028 390754 494720 
2009.112 583500 656558 712945 751131 770285 771714 760708 744736 731677 
2013.451 725825 725051 719686 696155 640386 545785 416564 269326 129956 
2017.791 26137 -21061 -4762 65227 164190 260217 323784 337178 299377 225724 
2022.613 141547 73931 43376 57464 111359 191055 278288 355915 411081 434129 
2027.434 418808 359843 255988 112446 -55372 -221624 -352949 -416963 -392375 
2031.774 -277302 -92400 124259 328234 482980 570442 594634 576224 541250 
2036.114 509190 486585 467266 438219 389429 320366 241860 172804 133115 
2040.453 137121 188274 279266 395405 519048 633745 726512 788008 812956 
2044.793 800650 756315 692934 630593 593152 601138 664635 777016 915044 
2049.132 1044668 1132315 1155844 1111485 1013168 886227 758804 653306 581323 
2053.472 542365 526534 520331 512030 496302 475537 456615 447654 454247 
2057.812 477018 512576 554699 597383 636354 670258 699703 726115 750563 
2062.151 773147 793107 809721 823164 834552 845926 859110 875300 894688 
2066.491 916510 939967 964929 992355 1023981 1061307 1104364 1150511 1194172 
2070.830 1227705 1243590 1236294 1204748 1153267 1090889 1029790 981904 
2074.688 956451 957695 984438 1030430 1086822 1144006 1194361 1233040 
2078.545 1258735 1272635 1277612 1276629 1271535 1262866 1249725 1230427 
2082.403 1203803 1170057 1131772 1093738 1062255 1043556 1042169 1058776 
2086.260 1089959 1128285 1163983 1187461 1191731 1173546 1134425 1078963 
2090.117 1013691 944922 877741 815396 760125 713988 679932 661788 663918 
2094.457 689848 741076 815863 909162 1013296 1119432 1218781 1303899 1369683 
2098.797 1413620 1435584 1437865 1424722 1401524 1373890 1347057 1325202 
2102.654 1310804 1304913 1307043 1315348 1327096 1338320 1344538 1341213 
2106.511 1324885 1293852 1249578 1196622 1142294 1094839 1061796 1047924 
2110.369 1054140 1077426 1111610 1149040 1182311 1205367 1214411 1207868 
2114.226 1186505 1152558 1109796 1062575 1015641 972671 935838 905507 879877 
2118.566 856135 831742 805256 777497 750569 727080 708437 694076 681134 
2122.906 665729 644596 616961 584973 553357 527495 510977 504087 502706 
2127.245 499915 487980 461228 418027 361583 299271 240278 193257 163850 
2131.585 153367 158206 170905 182329 183752 169739 140252 100853 61829 34243 
2136.406 26292 39465 67335 96268 111000 99319 58331 -3686 -68837 -115738 
2141.228 -127157 -97206 -35204 36986 91133 101633 54567 -48014 -188036 
2145.568 -337650 -467334 -553682 -585502 -564992 -504534 -422901 -339827 
2149.425 -273045 -235492 -236405 -280086 -368342 -498994 -667819 -867813 
2153.283 -1091497 -1329911 -1573231 -1808985 -2021272 -2188651 -2284255 
2156.658 -2278810 -2145787 -1870294 -1457900 -939922 -372314 176495 641912 
2160.515 978720 1165960 1205841 1118147 932185 682588 406291 138242 -92539 
2164.855 -267138 -379590 -436847 -455060 -454804 -454033 -464534 -490254 
2168.712 -529826 -579186 -635676 -699252 -772521 -857401 -953005 -1053238 
2172.570 -1147230 -1221543 -1263157 -1262577 -1216005 -1125741 -999326 
2175.945 -848745 -688895 -536175 -407164 -315582 -269920 -270339 -306615 
2179.802 -360623 -409927 -434431 -423340 -377957 -312103 -245258 -195496 
2183.660 -171010 -167978 -172198 -166064 -135757 -77670 1101 85550 159439 
2188.000 211567 239335 248986 252212 260743 282511 319427 368341 423107 
2192.339 477374 525976 565207 592118 604093 598964 575897 536531 485535 
2196.679 429345 374977 327037 287012 253413 223652 195896 172028 156451 
2201.018 156018 176233 219559 283641 362043 446073 526683 596863 652252 
2205.358 690510 711312 715532 705619 686142 663721 646348 641531 653299 
2209.698 680749 717447 752345 773429 771625 743183 691955 627771 564384 
2214.037 516047 494246 505316 549962 622753 713386 807765 890612 947827 
2218.377 969955 954149 905674 836316 761929 697957 655293 637991 642917 
2222.716 661689 684270 702688 712840 714977 712020 708289 706882 709844 
2227.056 717997 731633 751467 777937 810593 847416 884738 917816 942657 
2231.396 957397 963033 962733 960610 959577 960292 961187 959578 953772 
2235.735 944455 934940 930197 934812 951042 977782 1011120 1045737 1077072 
2240.075 1102635 1122305 1137930 1151393 1163631 1174318 1181859 1185273 
2243.932 1184347 1180777 1177515 1177881 1183964 1196069 1212258 1229150 
2247.790 1242545 1248780 1245410 1231745 1208838 1179203 1146494 1114966 
2251.647 1088594 1070396 1061948 1062704 1070698 1082812 1095922 1107559 
2255.504 1116382 1121807 1123801 1122105 1116428 1106808 1094188 1081262 
2259.362 1071767 1069891 1078547 1097977 1124997 1153864 1177782 1191593 
2263.219 1193698 1186817 1177169 1172180 1177875 1196702 1226784 1262836 
2267.077 1298093 1326525 1344822 1352666 1352656 1348462 1344105 1342758 
2270.934 1346171 1355253 1369920 1389473 1412583 1437466 1461578 1482569 
2274.792 1498401 1508148 1512112 1511789 1509344 1506745 1505562 1506463 
2278.649 1509603 1514899 1522475 1532801 1546433 1563934 1585562 1611107 
2282.506 1640138 1671888 1705409 1739425 1772041 1800796 1822961 1835905 
2286.364 1837959 1829077 1810877 1786497 1759598 1733412 1709861 1689416 
2290.221 1671297 1654207 1637267 1620362 1604070 1589355 1576767 1566229 
2294.079 1556783 1547266 1536702 1524938 1512483 1500279 1489075 1478881 
2297.936 1468930 1458010 1445293 1431012 1417013 1406086 1401402 1405082 
2301.793 1417404 1436225 1457635 1476866 1489671 1493609 1488581 1476692 
2305.651 1461512 1446925 1436118 1430874 1431351 1436452 1444255 1452893 
2309.508 1460867 1467486 1472857 1477609 1482681 1488845 1496558 1505846 
2313.366 1516462 1528041 1540443 1553833 1568616 1585256 1603799 1623618 
2317.223 1643424 1661510 1676654 1688775 1699683 1713028 1733582 1765728 
2321.081 1811536 1869246 1932502 1991161 2033228 2047924 2028203 1972810 
2324.938 1886349 1778399 1661134 1546987 1446153 1365017 1305506 1265595 
2328.795 1240702 1225421 1215198 1207136 1200212 1194559 1190710 1188885 
2332.653 1188825 1189830 1191312 1193162 1195678 1199534 1204981 1211825 
2336.510 1219111 1225483 1229671 1231093 1230021 1227443 1224833 1223445 
2340.368 1223870 1225975 1229030 1231977 1233943 1234370 1233107 1230374 
2344.225 1226626 1222459 1218661 1216300 1216417 1219924 1227227 1237965 
2348.083 1250804 1263933 1275430 1283874 1288900 1291215 1292300 1293773 
2351.940 1296761 1301439 1307020 1312184 1315597 1316483 1314856 1311560 
2355.797 1307718 1304388 1302226 1301259 1301098 1301119 1300665 1299363 
2359.655 1296873 1292957 1287384 1279813 1270060 1258157 1244421 1229674 
2363.512 1214916 1201255 1189802 1181246 1176001 1174068 1175092 1178592 
2367.370 1183910 1190508 1197856 1205627 1213497 1221141 1228185 1234222 
2371.227 1238838 1241993 1243987 1245569 1247867 1251870 1258088 1266117 
2375.084 1274620 1281596 1285085 1283775 1277680 1268098 1257349 1247960 
2378.942 1241951 1240096 1242159 1246849 1252826 1258998 1265092 1271365 
2382.799 1278296 1286158 1294679 1303076 1310229 1315160 1317235 1316228 
2386.657 1312394 1306131 1298055 1288824 1279421 1271001 1264942 1262448 
2390.514 1264146 1269733 1277986 1286950 1294416 1298635 1298696 1294693 
2394.372 1287524 1278473 1268993 1260241 1253230 1248708 1247215 1249074 
2398.229 1253982 1261079 1268767 1275131 1278253 1276835 1270617 1260385 
2402.086 1247791 1234870 1223558 1215351 1211115 1211213 1215623 1223987 
2405.944 1235710 1249738 1264847 1279618 1292635 1302831 1309727 1313093 
2409.801 1312983 1309260 1301798 1290217 1274547 1255372 1234073 1212818 
2413.659 1193921 1179412 1170457 1167252 1169031 1174599 1182849 1192877 
2417.516 1204125 1216100 1228049 1238844 1247227 1251954 1252406 1248792 
2421.374 1242027 1233408 1224226 1215253 1206682 1198369 1190013 1181572 
2425.231 1173202 1165390 1158697 1153351 1149385 1146564 1144758 1143847 
2429.088 1143903 1144838 1146278 1147434 1147002 1143695 1136485 1125127 
2432.946 1110311 1093585 1077019 1062745 1052567 1047576 1048305 1054546 
2436.803 1065706 1080674 1098090 1116258 1133285 1147062 1155730 1157593 
2440.661 1151625 1137578 1116397 1090169 1062147 1036238 1016610 1006445 
2444.518 1007322 1018472 1036867 1057942 1076900 1090216 1096658 1097677 
2448.375 1096655 1097429 1102827 1113362 1127126 1140520 1149914 1153195 
2452.233 1150630 1145015 1140295 1140149 1146348 1158026 1171904 1183593 
2456.090 1188952 1185474 1173080 1153653 1130452 1107059 1086467 1070752 
2459.948 1061125 1058056 1061451 1070554 1083724 1098171 1110389 1116602 
2463.805 1113835 1100796 1078464 1049951 1019528 991403 968338 951232 939070 
2468.145 929726 921418 913413 906495 902446 903316 910048 922060 937185 
2472.484 952516 965375 974329 979565 982478 984953 988290 992448 996219 
2476.824 997639 995091 987977 977165 964841 953675 945887 942730 944132 
2481.164 948993 955697 962786 969314 974932 979671 983740 987262 990287 
2485.503 992648 994146 994605 993783 991406 987331 981656 974873 968255 
2489.843 963456 962336 966236 975593 989519 1006137 1022946 1037663 1048851 
2494.182 1056121 1060131 1061973 1062696 1062934 1062906 1062376 1061461 
2498.040 1060454 1060007 1060755 1063050 1066484 1070020 1072134 1071520 
2501.897 1067123 1058964 1047555 1033990 1019609 1005677 993433 984042 
2505.755 978828 978949 985138 997440 1014890 1035310 1055876 1073532 1085965 
2510.094 1092171 1092583 1089288 1085195 1083486 1086679 1096306 1112382 
2513.952 1133609 1157474 1181009 1201161 1215576 1222815 1222603 1216064 
2517.809 1204885 1191037 1176477 1162402 1149521 1138064 1127995 1119501 
2521.667 1112988 1108862 1107580 1109100 1112936 1118226 1124228 1130326 
2525.524 1136679 1143966 1153041 1164599 1178643 1194268 1210037 1224188 
2529.381 1235320 1242845 1247228 1249815 1252573 1257291 1265322 1277099 
2533.239 1292041 1308597 1324770 1338223 1347039 1349940 1346642 1337999 
2537.096 1325908 1312614 1300507 1291351 1285919 1283729 1283462 1283186 
2540.954 1281292 1276960 1270549 1263590 1258376 1257361 1262374 1274099 
2544.811 1291827 1313285 1335514 1355220 1369769 1377744 1379313 1376316 
2548.668 1371635 1368295 1368844 1374338 1384027 1395758 1406450 1413164 
2552.526 1414193 1409329 1400213 1389535 1380113 1373954 1371591 1372029 
2556.383 1373266 1373182 1370541 1365429 1359354 1354581 1353445 1357383 
2560.241 1366527 1379505 1394131 1407845 1418427 1424473 1425627 1422178 
2564.098 1415227 1406027 1396394 1388024 1382819 1382304 1387455 1398336 
2567.956 1413814 1431895 1450218 1466663 1479974 1490081 1497906 1504663 
2571.813 1511310 1517770 1522799 1524407 1520646 1510497 1494629 1475386 
2575.670 1456329 1441237 1433110 1433222 1440800 1453417 1467789 1480626 
2579.528 1489459 1493237 1492356 1488284 1483163 1479262 1478523 1482398 
2583.385 1491522 1505534 1523260 1542618 1560944 1575387 1583554 1583980 
2587.243 1576617 1562852 1545336 1527147 1511120 1499123 1491566 1487583 
2591.100 1485371 1482846 1478615 1472310 1464742 1457458 1452462 1451165 
2594.958 1454160 1460825 1469687 1478711 1486055 1490499 1491866 1490930 
2598.815 1489340 1488857 1491237 1497511 1507848 1521404 1536654 1551543 
2602.672 1564044 1572537 1576179 1574922 1569640 1561669 1552584 1543768 
2606.530 1536105 1529910 1524948 1520685 1516639 1512495 1508394 1504861 
2610.387 1502623 1502217 1504134 1508262 1514215 1521294 1528726 1536057 
2614.245 1543066 1549875 1556696 1563731 1570769 1577071 1581687 1583597 
2618.102 1582235 1577776 1571556 1565659 1562594 1564475 1572457 1586283 
2621.959 1604326 1623894 1642089 1656394 1665247 1668429 1666803 1662025 
2625.817 1656089 1650982 1648336 1649221 1654170 1662911 1674520 1687318 
2629.674 1699203 1708085 1712291 1711092 1704900 1695175 1683978 1673336 
2633.532 1664789 1658921 1655532 1653913 1653224 1652977 1653066 1653750 
2637.389 1655276 1657618 1660360 1662827 1664267 1664083 1662257 1659063 
2641.247 1655184 1651322 1648142 1646017 1645101 1645543 1647256 1650063 
2645.104 1653698 1657672 1661319 1663934 1664905 1663971 1661141 1656778 
2648.961 1651462 1645707 1639951 1634406 1629171 1624166 1619481 1615061 
2652.819 1610933 1606992 1603049 1598917 1594490 1589802 1585176 1581047 
2656.676 1577800 1575543 1574097 1572740 1570471 1566166 1558849 1547930 
2660.534 1533346 1515605 1495788 1475377 1456052 1439449 1426808 1418748 
2664.391 1415055 1414694 1416067 1417343 1417053 1414251 1408924 1401709 
2668.249 1393748 1386205 1380003 1375580 1372919 1371824 1371964 1373009 
2672.106 1374708 1376641 1378341 1379199 1378686 1376468 1372609 1367555 
2675.963 1361962 1356483 1351622 1347576 1344282 1341732 1339989 1339333 
2679.821 1340121 1342519 1346381 1351081 1355603 1358975 1360613 1360489 
2683.678 1359249 1357937 1357560 1358749 1361495 1365278 1369153 1372317 
2687.536 1374338 1375198 1375327 1375303 1375658 1376617 1378163 1380106 
2691.393 1382104 1383885 1385243 1386060 1386200 1385636 1384330 1382337 
2695.250 1379774 1376786 1373661 1370471 1367325 1364278 1361456 1358895 
2699.108 1356841 1355373 1354592 1354363 1354587 1355010 1355741 1356925 
2702.965 1359033 1362565 1367983 1375334 1384230 1393955 1403575 1412265 
2706.823 1419424 1424834 1428575 1430827 1431818 1431645 1430310 1427829 
2710.680 1424328 1420181 1415896 1412137 1409405 1408036 1408178 1409647 
2714.538 1412209 1415465 1419121 1422916 1426713 1430483 1434400 1438656 
2718.395 1443552 1449280 1455876 1463086 1470372 1477177 1482908 1487298 
2722.252 1490430 1492713 1494740 1496998 1499785 1502931 1506187 1509151 
2726.110 1511568 1513528 1515269 1517075 1519192 1521457 1523549 1525027 
2729.967 1525654 1525557 1525331 1525903 1528198 1532769 1539680 1548384 
2733.825 1557843 1566920 1574643 1580330 1583888 1585499 1585576 1584606 
2737.682 1582945 1580889 1578547 1576029 1573483 1571073 1569068 1567798 
2741.540 1567485 1568350 1570421 1573303 1576463 1579024 1580039 1578952 
2745.397 1575589 1570519 1564866 1560116 1557669 1558404 1562275 1568492 
2749.254 1575523 1581726 1585835 1587240 1586197 1583556 1580572 1578289 
2753.112 1577447 1578315 1580680 1584102 1588079 1592132 1595797 1598640 
2756.969 1600317 1600560 1599340 1596906 1593906 1591229 1589709 1590005 
2760.827 1592313 1596346 1601401 1606661 1611450 1615266 1617998 1619952 
2764.684 1621608 1623525 1626214 1630037 1635153 1641293 1647919 1654110 
2768.542 1658704 1660593 1659068 1653978 1645984 1636368 1626703 1618553 
2772.399 1612969 1610252 1610075 1611734 1614380 1617428 1620728 1624365 
2776.256 1628573 1633388 1638503 1643396 1647367 1649930 1650944 1650661 
2780.114 1649753 1648983 1649026 1650331 1653055 1657015 1661948 1667360 
2783.971 1672867 1677993 1682438 1686004 1688664 1690688 1692432 1694336 
2787.829 1696802 1700028 1704051 1708638 1713565 1718559 1723498 1728355 
2791.686 1733157 1737866 1742306 1746324 1749640 1752271 1754311 1756193 
2795.543 1758413 1761526 1765967 1771903 1779329 1788026 1797565 1807381 
2799.401 1816852 1825320 1832293 1837460 1840905 1843060 1844650 1846485 
2803.258 1849169 1852826 1857164 1861436 1864776 1866569 1866664 1865398 
2807.116 1863556 1862024 1861456 1862154 1864023 1866574 1869248 1871517 
2810.973 1873058 1873691 1873483 1872422 1870633 1868256 1865443 1862477 
2814.831 1859558 1856979 1854967 1853749 1853593 1854962 1858313 1864215 
2818.688 1872992 1884533 1898242 1912973 1927368 1940090 1950280 1957653 
2822.545 1962653 1966153 1969170 1972625 1977041 1982658 1989295 1996838 
2826.403 2004917 2013208 2021294 2028754 2035216 2040575 2045031 2049355 
2830.260 2054691 2062260 2073105 2087599 2105346 2125230 2145659 2165132 
2834.118 2182417 2197052 2209283 2219779 2229418 2238946 2248641 2258358 
2837.975 2267725 2276128 2283365 2289561 2295452 2302227 2311345 2324073 
2841.833 2341259 2363051 2388752 2416955 2446011 2474390 2500986 2525509 
2845.690 2548178 2569732 2590834 2611927 2632963 2653519 2673052 2691157 
2849.547 2707804 2723378 2738466 2753744 2769715 2786543 2804066 2822013 
2853.405 2840141 2858182 2876134 2893988 2911793 2929567 2947329 2965169 
2857.262 2983326 3002103 3021898 3042925 3065206 3088547 3112560 3136936 
2861.120 3161460 3186300 3212066 3239403 3269151 3301907 3338142 3378047 
2864.977 3421655 3468944 3519899 3574450 3632543 3693951 3758356 3825452 
2868.834 3894940 3966706 4040747 4117136 4195860 4276578 4358566 4440684 
2872.692 4521521 4599571 4673623 4742966 4807280 4866837 4922088 4973564 
2876.549 5021615 5066245 5107191 5143950 5176010 5203126 5225302 5243103 
2880.407 5257485 5269813 5281500 5293976 5308313 5325135 5344558 5366304 
2884.264 5389745 5414275 5439239 5464273 5489122 5513632 5537536 5560402 
2888.122 5581526 5600121 5615319 5626448 5633116 5635217 5632952 5626717 
2891.979 5616923 5604012 5588299 5570130 5549741 5527325 5503053 5477023 
2895.836 5449396 5420435 5390618 5360880 5332511 5307043 5285959 5270350 
2899.694 5260579 5256174 5255915 5258212 5261481 5264692 5267401 5269890 
2903.551 5272872 5276979 5282612 5289530 5297104 5304209 5309829 5313090 
2907.409 5313510 5311024 5305896 5298564 5289471 5278888 5266874 5253199 
2911.266 5237349 5218790 5197053 5172144 5144559 5115513 5086675 5059864 
2915.124 5036568 5017591 5002800 4991163 4981221 4971428 4960858 4949270 
2918.981 4937377 4926467 4918008 4913247 4912852 4916882 4924819 4935808 
2922.838 4948845 4962966 4977505 4992101 5006763 5022046 5038919 5058765 
2926.696 5082961 5112700 5148617 5190609 5237834 5289026 5342817 5398186 
2930.553 5454713 5512558 5572274 5634434 5699275 5766497 5835372 5904969 
2934.411 5974523 6043769 6113126 6183541 6256103 6331692 6410604 6492305 
2938.268 6575659 6659126 6741338 6821542 6899713 6976753 7054016 7133063 
2942.125 7215203 7301167 7391204 7484962 7581871 7681296 7782674 7885606 
2945.983 7989681 8094518 8199679 8304761 8409619 8514268 8619265 8725301 
2949.840 8833163 8943508 9056518 9171953 9289357 9408080 9527573 9647740 
2953.698 9768434 9889818 10011766 10133675 10254687 10373554 10489102 
2957.073 10600479 10707587 10811114 10912399 11013109 11114827 11218365 
2960.448 11323796 11430085 11535538 11637959 11735351 11825918 11908506 
2963.823 11982236 12046559 12100799 12144186 12176085 12196323 12205329 
2967.199 12204360 12195211 12179594 12158474 12131577 12097189 12052698 
2970.574 11995418 11923580 11837129 11737755 11628655 11513430 11395293 
2973.949 11276102 11156435 11035696 10912736 10786619 10656551 10522283 
2977.324 10383465 10239799 10090732 9935964 9775754 9611273 9444548 9277955 
2981.182 9113796 8953149 8795825 8640325 8484509 8326208 8164198 7998439 
2985.039 7829985 7660762 7492894 7328541 7169428 7016908 6871973 6735123 
2988.897 6606251 6484724 6369132 6257878 6149335 6042489 5936891 5832902 
2992.754 5730973 5631526 5534237 5438489 5343485 5248883 5155321 5064399 
2996.612 4978328 4899237 4828229 4765016 4707820 4653873 4600253 4544794 
3000.469 4486357 4425183 4362300 4299305 4237718 4178800 4123230 4071269 
3004.326 4022577 3976403 3931296 3885577 3837509 3785814 3730074 3671183 
3008.184 3611050 3552278 3497568 3448936 3407205 3372026 3342063 3315342 
3012.041 3289939 3264204 3236962 3207528 3175707 3141480 3105102 3066903 
3015.899 3027415 2987271 2947117 2907708 2869935 2834653 2802640 2774568 
3019.756 2750590 2730194 2712269 2695147 2677031 2656520 2633002 2606794 
3023.614 2578958 2550946 2523911 2498507 2474644 2451798 2429398 2407087 
3027.471 2385038 2363620 2343147 2323550 2304420 2285122 2265240 2245046 
3031.328 2225586 2208594 2195858 2188678 2187411 2191336 2198942 2208462 
3035.186 2218426 2227862 2236328 2243530 2249116 2252340 2252452 2248907 
3039.043 2241880 2232567 2223005 2215736 2213034 2216357 2226168 2241776 
3042.901 2261780 2284901 2310107 2337121 2366429 2398836 2435258 2476289 
3046.758 2522066 2572331 2626298 2682859 2740750 2798417 2854082 2905986 
3050.615 2952377 2991890 3023753 3047955 3065306 3077167 3085212 3090940 
3054.473 3095343 3098671 3100580 3100426 3097505 3091722 3083491 3073836 
3058.330 3064178 3055837 3049774 3046292 3045341 3046609 3049756 3054793 
3062.188 3061939 3071496 3083488 3097334 3111881 3125530 3136616 3144014 
3066.045 3147359 3147323 3145300 3142985 3141918 3142818 3145498 3148866 
3069.903 3151318 3151220 3147370 3139342 3127707 3113610 3098780 3084812 
3073.760 3073072 3064560 3059766 3059036 3062665 3070946 3084017 3101539 
3077.617 3122471 3144759 3165690 3182158 3191528 3192404 3184761 3170155 
3081.475 3151009 3129904 3108630 3087802 3066793 3044307 3019005 2990200 
3085.332 2958184 2924106 2889536 2855935 2824182 2794630 2767217 2741785 
3089.190 2718345 2697200 2678579 2662640 2649026 2637038 2625853 2614968 
3093.047 2604195 2594069 2585297 2578541 2574103 2571744 2570932 2571123 
3096.905 2572162 2574393 2578706 2586046 2597051 2611829 2629776 2649847 
3100.762 2670765 2691347 2710574 2727535 2741387 2751121 2755956 2755219 
3104.619 2748739 2737239 2721799 2703941 2685103 2666084 2647093 2627752 
3108.477 2607547 2586226 2563988 2541663 2520364 2500982 2483991 2469014 
3112.334 2455156 2441160 2425795 2408464 2389091 2368130 2346336 2324444 
3116.192 2303032 2282331 2262561 2243975 2227014 2212464 2201116 2193693 
3120.049 2190428 2191008 2194447 2199401 2204398 2208334 2210642 2211425 
3123.906 2211293 2211182 2211944 2213906 2217153 2221106 2224956 2227869 
3127.764 2229150 2228345 2225253 2219947 2212585 2203503 2193047 2181736 
3131.621 2170021 2158357 2146932 2135600 2123969 2111440 2097506 2081933 
3135.479 2064997 2047404 2030219 2014413 2000777 1989543 1980648 1973546 
3139.336 1967781 1962996 1959245 1956706 1955718 1956367 1958473 1961404 
3143.194 1964293 1966274 1966576 1964816 1960953 1955322 1948315 1940260 
3147.051 1931314 1921331 1910053 1897229 1882827 1867479 1852214 1838649 
3150.908 1828614 1823805 1825248 1833159 1846483 1863274 1880826 1896329 
3154.766 1907376 1912523 1911553 1905515 1896516 1887059 1879690 1876211 
3158.623 1877198 1882026 1888744 1894903 1897942 1896108 1888984 1877600 
3162.481 1864153 1851382 1841722 1836637 1836162 1839163 1843673 1847760 
3166.338 1849860 1849439 1846605 1841961 1836103 1829286 1821467 1812475 
3170.196 1802439 1791963 1782241 1774678 1770604 1770767 1775114 1782947 
3174.053 1793104 1804458 1816052 1827436 1838302 1848362 1857166 1864021 
3177.910 1868263 1869315 1867154 1862280 1855547 1848011 1840474 1833404 
3181.768 1826909 1820968 1815464 1810556 1806566 1803879 1802656 1802811 
3185.625 1803811 1804993 1805694 1805497 1804336 1802394 1799905 1796924 
3189.483 1793245 1788484 1782287 1774793 1766643 1759059 1753712 1752113 
3193.340 1755206 1762919 1774162 1786899 1798643 1807013 1810311 1807880 
3197.198 1800298 1789182 1776830 1765666 1757850 1754679 1756447 1762414 
3201.055 1771036 1780424 1788590 1794051 1795891 1794000 1788829 1781366 
3204.912 1772869 1764768 1758407 1754971 1755288 1759674 1767667 1778127 
3208.770 1789141 1798640 1804609 1805829 1802145 1794634 1785365 1776816 
3212.627 1771358 1770417 1774348 1782262 1792486 1802951 1811888 1818269 
3216.485 1821813 1823166 1823418 1823821 1825304 1828095 1831665 1834804 
3220.342 1835835 1833126 1825550 1812944 1796377 1777925 1760238 1745998 
3224.199 1737174 1734578 1737823 1745474 1755714 1766953 1778153 1788979 
3228.057 1799397 1809438 1818487 1825371 1828441 1826155 1817860 1804228 
3231.914 1787404 1770686 1757760 1751557 1753609 1763397 1778649 1795752 
3235.772 1810907 1821148 1824950 1822897 1816996 1810202 1805277 1804035 
3239.629 1806738 1812238 1818554 1823611 1826287 1826559 1825633 1825262 
3243.487 1826808 1830694 1835954 1840682 1842600 1840226 1833384 1823380 
3247.344 1812599 1803528 1798062 1796748 1798879 1802854 1807037 1810218 
3251.201 1812079 1812741 1812518 1811335 1808689 1803727 1795892 1785511 
3255.059 1773904 1763299 1756100 1754066 1757669 1765841 1776311 1786424 
3258.916 1794026 1798031 1798768 1797426 1795678 1794817 1795334 1796869 
3262.774 1798372 1798659 1796790 1792400 1785709 1777483 1768761 1760542 
3266.631 1753800 1749281 1747467 1748482 1752237 1758296 1765981 1774578 
3270.489 1783322 1791761 1799632 1806858 1813493 1819504 1824474 1827819 
3274.346 1828682 1826390 1820613 1811714 1800800 1789785 1780746 1775730 
3278.203 1775870 1781411 1791310 1803667 1816194 1826776 1834048 1837622 
3282.061 1838013 1836399 1834091 1832233 1831477 1832099 1834065 1837224 
3285.918 1841397 1846267 1851326 1855878 1859042 1860032 1858593 1855123 
3289.776 1850736 1847186 1846032 1848346 1854119 1862346 1871174 1878644 
3293.633 1883187 1884116 1881648 1876835 1870805 1864750 1859291 1854760 
3297.490 1851180 1848705 1847382 1847474 1849062 1851835 1855130 1858027 
3301.348 1859661 1859578 1857954 1855621 1853918 1854089 1856866 1862150 
3305.205 1868901 1875409 1879589 1879742 1874687 1864358 1849485 1831679 
3309.063 1812792 1794835 1779363 1767485 1759569 1755427 1754405 1755583 
3312.920 1758105 1761383 1765008 1768988 1773393 1778322 1783607 1788728 
3316.778 1792883 1795291 1795352 1793186 1789617 1786281 1785092 1787936 
3320.635 1795759 1808442 1824597 1841817 1857461 1869273 1875925 1877347 
3324.492 1874517 1868930 1862169 1855463 1849514 1844792 1841721 1841061 
3328.350 1843851 1851056 1863044 1879296 1898024 1916614 1932137 1942418 
3332.207 1946414 1944804 1939579 1933491 1928990 1927668 1929615 1933601 
3336.065 1937420 1938708 1935526 1926964 1913380 1896409 1878560 1862838 
3339.922 1852100 1848500 1852971 1864867 1882162 1901629 1919612 1932898 
3343.780 1939520 1939193 1933442 1924938 1916780 1911406 1910030 1912080 
3347.637 1915761 1918510 1918033 1912946 1903192 1889915 1874972 1860173 
3351.494 1846641 1834681 1823697 1812801 1801385 1789753 1779165 1771702 
3355.352 1769594 1774508 1786717 1805101 1827007 1849047 1867963 1881216 
3359.209 1887721 1887755 1882680 1874447 1864812 1855085 1845931 1837520 
3363.067 1829739 1822610 1816292 1811259 1807997 1806856 1807916 1810897 
3366.924 1815132 1819955 1824509 1828228 1830603 1831385 1830370 1827432 
3370.781 1822277 1814825 1805018 1793050 1779562 1765643 1752388 1741133 
3374.639 1732738 1727645 1725719 1726407 1728962 1732866 1737836 1743928 
3378.496 1751222 1759482 1767995 1775478 1780470 1781858 1779402 1773985 
3382.354 1767364 1761831 1759269 1760529 1765320 1772222 1779331 1785058 
3386.211 1788616 1790268 1791125 1792595 1795919 1801800 1810389 1821231 
3390.069 1833795 1847421 1861360 1874859 1886987 1896716 1903146 1905899 
3393.926 1905179 1901656 1896411 1890460 1884494 1878824 1873551 1869052 
3397.783 1866046 1865831 1869700 1878588 1892225 1909200 1927003 1942769 
3401.641 1954099 1960007 1961119 1959580 1958509 1960913 1969169 1984437 
3405.498 2006584 2034369 2065864 2098897 2131317 2161289 2187516 2209331 
3409.356 2226682 2240071 2250415 2258810 2266280 2273693 2281775 2291238 
3413.213 2302702 2316870 2334123 2354612 2377824 2402828 2428430 2453651 
3417.071 2478136 2502102 2526274 2551448 2577843 2604884 2631199 2655092 
3420.928 2675152 2690950 2703116 2713451 2724298 2737839 2755627 2778323 
3424.785 2805434 2835657 2867004 2897130 2923621 2944392 2958162 2964812 
3428.643 2965565 2963061 2960533 2961228 2967152 2978772 2994675 3012174 
3432.500 3028230 3040205 3046623 3047074 3041962 3031878 3017250 2998381 
3436.358 2975780 2950690 2925308 2902582 2885428 2875925 2874342 2878835 
3440.215 2885943 2891356 2891215 2882878 2865704 2840784 2810596 2778116 
3444.073 2746029 2716381 2690030 2666954 2646013 2625732 2604413 2580814 
3447.930 2554528 2526112 2497032 2469228 2444383 2423520 2406535 2392382 
3451.787 2379574 2366729 2353172 2339009 2324959 2311825 2300129 2289838 
3455.645 2280358 2270898 2260868 2249800 2237556 2224088 2209175 2192574 
3459.502 2174191 2154549 2134695 2116221 2100722 2089128 2081335 2075948 
3463.360 2071060 2064856 2056335 2045822 2034806 2024929 2017354 2012070 
3467.217 2007798 2002547 1994616 1983330 1969573 1955300 1943297 1935751 
3471.074 1933912 1937675 1945635 1955800 1966027 1974462 1979785 1981390 
3474.932 1979227 1973878 1966241 1957669 1949259 1941862 1935583 1929945 
3478.789 1924107 1917568 1910384 1903795 1899632 1899779 1905380 1916159 
3482.647 1930296 1944929 1957124 1964844 1967455 1965703 1961366 1956326 
3486.504 1951904 1948803 1946872 1945924 1945701 1946181 1947387 1949003 
3490.362 1950338 1950385 1948229 1943693 1937633 1931748 1928205 1928623 
3494.219 1933556 1942301 1953009 1963626 1972686 1979883 1986142 1993132 
3498.076 2002378 2014623 2029363 2044966 2059035 2069241 2073958 2072574 
3501.934 2065626 2054619 2041657 2028986 2018713 2012284 2010302 2012356 
3505.791 2017270 2023327 2028586 2031773 2032277 2030577 2027828 2025644 
3509.649 2025605 2029006 2036499 2048143 2063614 2082049 2102121 2122118 
3513.506 2139986 2153634 2161535 2163084 2159092 2151638 2143639 2138284 
3517.364 2137963 2143989 2156175 2173227 2193147 2213915 2233732 2251332 
3521.221 2265742 2276379 2282755 2284904 2283167 2278550 2272320 2265923 
3525.078 2260341 2256004 2252542 2249471 2246233 2242982 2240667 2240736 
3528.936 2244756 2253689 2267267 2284126 2301941 2318219 2330950 2339265 
3532.793 2343530 2345169 2346084 2348282 2353110 2361328 2372750 2386650 
3536.651 2401686 2416477 2429463 2439453 2445587 2447719 2446229 2442308 
3540.508 2437385 2433128 2430908 2431657 2435589 2442455 2451555 2462065 
3544.365 2473235 2484540 2495526 2505848 2515050 2522476 2527239 2528562 
3548.223 2525667 2518301 2506763 2491876 2474918 2457420 2440767 2426108 
3552.080 2414016 2404827 2398351 2394479 2393034 2394076 2397535 2403232 
3555.938 2410547 2418617 2426056 2431605 2434234 2433665 2430318 2425592 
3559.795 2421176 2418868 2419950 2424748 2432509 2441435 2449008 2452638 
3563.653 2450103 2440358 2423520 2401364 2376676 2352727 2332592 2318187 
3567.510 2309886 2306467 2305398 2303730 2299179 2290547 2278323 2264284 
3571.367 2250783 2239789 2232178 2227472 2224025 2219845 2213430 2204598 
3575.225 2194527 2185283 2179005 2176991 2179112 2183637 2187971 2189492 
3579.082 2186492 2178848 2167643 2155028 2143156 2133496 2126456 2121592 
3582.940 2117883 2114509 2110846 2106965 2103010 2099248 2095436 2091394 
3586.797 2086713 2081609 2076589 2072808 2071279 2072846 2077235 2083590 
3590.655 2090223 2095424 2097972 2097374 2093891 2088441 2082109 2075945 
3594.512 2070720 2067124 2065735 2067135 2071698 2079476 2089840 2101755 
3598.369 2113516 2123976 2132275 2138679 2144068 2149810 2156897 2165462 
3602.227 2174658 2182938 2188532 2190278 2188052 2182883 2176598 2171245 
3606.084 2168361 2168942 2172891 2179799 2188818 2199307 2210648 2222296 
3609.942 2233524 2243298 2250431 2253996 2253678 2250252 2245622 2242607 
3613.799 2244071 2252364 2268034 2289957 2315073 2339252 2358235 2368975 
3617.656 2370398 2363717 2352068 2339846 2331151 2329014 2334620 2347449 
3621.514 2365690 2386936 2408847 2429475 2447088 2460328 2467621 2467827 
3625.371 2460493 2446544 2428518 2410464 2397093 2392603 2399256 2416763 
3629.229 2442031 2470254 2496143 2515540 2526388 2528814 2524711 2516730 
3633.086 2507121 2497387 2487774 2477878 2466927 2454323 2440040 2424666 
3636.944 2409057 2394558 2382419 2373545 2368560 2367369 2369151 2372623 
3640.801 2375926 2377563 2376445 2372545 2366550 2359880 2354041 2350137 
3644.658 2348401 2348491 2349672 2351356 2353126 2355019 2357109 2359286 
3648.516 2360665 2360019 2355815 2346762 2332330 2313232 2290964 2267934 
3652.373 2246544 2228945 2216682 2210542 2210428 2215533 2224164 2234309 
3656.231 2243449 2249275 2249965 2244693 2233582 2217786 2198938 2179030 
3660.088 2159648 2142218 2127514 2116030 2107898 2102802 2100005 2098227 
3663.946 2095748 2090820 2081918 2068375 2050536 2029852 2008476 1988919 
3667.803 1973235 1962961 1958482 1959404 1964141 1970752 1976884 1980444 
3671.660 1980138 1975742 1968376 1960391 1954426 1952896 1956776 1965390 
3675.518 1976362 1986461 1992666 1993409 1988760 1980545 1971143 1962616 
3679.375 1955863 1950233 1944243 1936190 1925086 1911203 1895847 1881157 
3683.233 1869019 1860929 1857431 1858625 1863982 1872824 1883919 1895820 
3687.090 1906402 1913464 1914988 1910143 1899446 1884938 1869377 1855581 
3690.948 1845346 1839203 1836251 1835055 1834230 1832997 1831330 1829724 
3694.805 1828502 1827688 1826663 1824920 1821850 1817529 1812215 1806293 
3698.662 1799601 1791346 1780251 1765262 1746143 1723997 1701005 1680056 
3702.520 1663504 1652726 1647548 1646796 1648634 1651788 1655327 1659363 
3706.377 1663959 1669313 1675066 1680658 1685433 1689353 1692528 1695369 
3710.235 1697738 1698692 1696502 1689279 1675678 1656421 1634004 1612902 
3714.092 1597911 1592898 1599246 1615567 1637714 1660418 1678577 1689049 
3717.949 1691148 1686973 1680306 1675594 1676396 1684796 1700699 1722164 
3721.807 1745782 1767751 1784254 1792530 1790804 1778947 1757955 1729875 
3725.664 1697514 1664090 1632923 1607278 1589850 1582696 1586581 1600885 
3729.522 1623519 1651293 1680452 1707750 1730824 1749219 1763734 1776303 
3733.379 1788850 1802528 1817311 1832050 1844916 1854330 1859240 1859831 
3737.237 1856789 1851442 1844591 1836873 1828503 1819579 1810453 1802040 
3741.094 1795354 1791399 1790439 1792086 1795001 1797615 1798373 1796924 
3744.951 1793642 1790059 1787880 1788549 1792294 1798538 1805524 1811508 
3748.809 1814981 1815654 1814217 1812402 1812019 1814301 1819323 1825930 
3752.666 1831987 1835378 1834482 1829209 1820575 1810933 1802711 1798161 
3756.524 1798555 1804261 1814651 1828809 1845352 1862908 1879879 1894423 
3760.381 1904498 1908486 1905276 1895345 1880594 1864139 1849447 1839456 
3764.239 1835454 1836811 1841235 1845673 1847247 1844416 1837192 1827127 
3768.096 1816416 1807420 1801742 1800331 1803049 1809380 1818152 1828189 
3771.953 1837850 1845720 1850343 1851249 1848615 1843907 1839197 1836712 
3775.811 1837820 1842736 1850007 1857407 1862493 1863528 1860220 1853683 
3779.668 1845902 1838995 1834302 1832395 1832502 1833508 1834097 1833317 
3783.526 1830496 1825658 1818765 1810248 1800538 1790635 1781744 1775503 
3787.383 1773306 1776082 1783667 1794846 1807335 1818470 1825457 1826311 
3791.240 1819927 1806516 1787236 1764282 1740411 1718760 1702289 1693512 
3795.098 1693727 1702874 1719306 1740015 1761202 1779319 1791426 1796348 
3798.955 1794387 1787489 1778272 1769780 1764328 1763456 1767321 1775224 
3802.813 1785638 1796997 1807800 1817268 1825107 1831559 1837044 1842097 
3806.670 1846922 1851582 1855899 1859694 1862788 1865244 1866936 1867657 
3810.528 1866961 1864375 1859452 1852241 1843125 1833177 1823624 1815499 
3814.385 1809315 1804893 1801415 1798115 1794418 1790414 1786779 1784562 
3818.242 1784443 1786727 1790880 1796018 1801222 1806082 1810674 1815728 
3822.100 1821975 1829682 1838558 1847718 1855881 1862035 1865577 1866761 
3825.957 1866085 1864397 1862286 1860046 1857574 1854896 1851859 1848667 
3829.815 1845422 1842460 1839612 1836686 1833233 1828842 1823154 1816167 
3833.672 1807921 1798800 1789356 1780488 1773404 1769708 1770895 1778364 
3837.530 1792441 1812397 1836154 1860731 1882731 1899141 1907822 1907933 
3841.387 1899792 1885148 1866215 1846121 1827762 1813932 1806460 1805991 
3845.244 1811498 1820742 1830362 1837137 1838746 1834466 1825389 1814016 
3849.102 1803234 1795583 1792198 1793002 1796825 1802107 1807415 1812002 
3852.959 1815326 1817167 1816916 1813968 1807714 1798204 1786537 1775022 
3856.817 1766437 1763790 1768738 1781736 1801290 1824678 1848423 1869423 
3860.674 1885152 1894625 1897682 1895383 1889213 1881061 1872520 1864857 
3864.531 1858720 1854070 1850352 1846892 1842978 1838570 1833916 1829830 
3868.389 1826910 1825505 1825266 1825403 1825073 1823848 1821767 1819790 
3872.246 1818836 1819672 1822065 1825224 1827696 1828417 1827165 1824692 
3876.104 1822569 1822653 1825880 1832301 1840518 1848438 1853917 1855577 
3879.961 1852935 1846692 1838147 1828924 1820441 1813945 1810438 1810701 
3883.819 1815244 1823965 1835836 1848779 1859955 1866578 1866497 1859449 
3887.676 1846996 1832470 1819869 1813022 1814171 1823581 1839378 1858257 
3891.533 1876139 1889645 1896544 1896400 1890334 1880706 1870358 1862161 
3895.391 1858046 1859046 1865032 1875054 1887520 1900891 1913953 1926039 
3899.248 1936836 1946459 1954830 1961739 1966375 1967952 1965514 1958720 
3903.106 1947672 1933327 1917081 1900742 1885905 1873748 1864938 1859449 
3906.963 1856643 1855759 1855857 1856374 1857049 1858129 1859995 1863171 
3910.821 1867842 1873968 1881079 1888651 1895988 1902791 1908795 1913870 
3914.678 1917870 1920493 1921281 1920271 1917856 1915297 1914430 1917147 
3918.535 1924631 1936858 1952267 1968102 1981248 1989456 1991975 1990011 
3922.393 1986219 1983860 1985485 1992371 2003824 2017794 2031478 2042337 
3926.250 2048578 2049396 2044946 2035979 2023493 2008713 1992878 1977408 
3930.108 1963912 1953668 1947412 1945293 1946441 1949631 1953350 1956542 
3933.965 1958641 1959712 1959899 1959440 1957979 1955013 1949751 1941941 
3937.823 1931913 1920959 1910822 1903586 1900757 1903128 1910332 1921077 
3941.680 1933330 1945006 1954202 1960004 1962226 1961753 1960022 1958808 
3945.537 1959444 1962725 1968388 1975454 1982337 1987475 1989795 1989072 
3949.395 1985807 1981112 1976031 1971439 1967376 1963338 1958426 1951843 
3953.252 1942980 1931864 1918970 1905186 1891519 1879122 1869042 1862485 
3957.110 1860286 1863151 1871133 1883546 1898802 1914672 1928571 1938413 
3960.967 1942790 1941686 1936147 1928192 1919929 1913085 1908298 1905369 
3964.824 1903237 1900838 1897642 1894073 1891326 1891131 1894604 1902079 
3968.682 1912241 1922965 1931498 1936162 1936544 1934384 1932543 1934534 
3972.539 1942715 1957715 1977833 1999796 2019650 2034059 2041183 2041070 
3976.397 2035026 2025101 2013160 2000737 1988726 1978246 1970298 1966523 
3980.254 1968054 1975470 1987837 2002998 2017723 2028995 2034902 2035348 
3984.112 2031895 2027199 2023837 2023428 2025984 2030185 2033972 2035541 
3987.969 2033809 2028907 2021598 2013124 2004487 1996344 1988881 1982339 
3991.826 1977174 1974256 1974574 1979202 1988743 2003294 2021932 2043216 
3995.684 2065205 2085633 2102141 2113025 2117101 2114366 2105985 2094250 
3999.541 2081882 2071471 2064639 
##END=
