##TITLE=Tecor_PLA-Bicolour_White_Filament_r5_ATR-Corrected
##JCAMP-DX=5.01  $$ Nicolet v. 1
##DATATYPE=INFRARED SPECTRUM
##ORIGIN=Curtin University
##OWNER=Nicolet
##LONGDATE=2024/07/19
##TIME=11:38:12
##SPECTROMETER/DATA SYSTEM=Nicolet iS50
##DATA PROCESSING=
Ratio against background
%Transmittance->Absorbance
ATR Correction
Truncated
ElementMultiply or ElementDivide
##COMMENTS=
Number of sample scans: 32
Collection length: 47.28 sec
Sample gain: 1.0
Background collected on: Fri Jul 19 11:35:24 2024 (GMT+08:00);
Number of background scans: 32
Background gain: 1.0
Sample spacing:  1.000
Number of scan points: 16672
Resolution points: 8192
Number of FFT points: 65536
Apodization: N-B strong;
Phase correction: Mertz;
Laser frequency: 15798.3 cm-1
Number of rejected sample scans: 0
Number of rejected background scans: 0
Bench serial number: AUP1200105;
##RESOLUTION=4.000
##XUNITS=1/CM
##YUNITS=ABSORBANCE
##FIRSTX=400.163452
##LASTX=4000.187744
##FIRSTY=0.070880
##MAXX=4000.187744
##MINX=400.163452
##MAXY=1.170612
##MINY=-0.027207
##XFACTOR=1.000000
##YFACTOR=1.000000E-008
##NPOINTS=7468
##DELTAX=0.482125
##ZPD=8192
##XYDATA=(X++(Y..Y))
400.163 7088014 7024735 6929184 6797834 6631002 6436059 6225427 6013590 
404.020 5813344 5633255 5477103 5344930 5235189 5146731 5079588 5034448 
407.877 5011023 5006477 5014607 5026402 5031784 5022118 4992349 4941974 
411.734 4874741 4796897 4715029 4634180 4556961 4483809 4413865 4346029 
415.591 4279545 4213966 4148734 4082580 4013492 3939310 3858880 3773226 
419.448 3686116 3603661 3532873 3479716 3447292 3434880 3438106 3450252 
423.305 3464055 3473413 3474395 3465242 3445766 3416535 3378488 3333073 
427.162 3282811 3231854 3185752 3150391 3130328 3127085 3138407 3158866 
431.019 3181542 3200474 3212530 3218114 3220779 3224885 3233475 3246848 
434.876 3262344 3275568 3282404 3280726 3271265 3256997 3241685 3228116 
438.733 3216884 3206487 3194320 3178234 3157742 3134333 3110817 3090058 
442.590 3073797 3062190 3054280 3048989 3046078 3046478 3051666 3062452 
446.447 3077701 3093845 3105439 3106750 3093784 3065822 3025823 2979572 
450.304 2933890 2894630 2865333 2846842 2837948 2836470 2840360 2848149 
454.161 2858832 2871257 2883723 2893870 2899218 2898006 2889924 2876396 
458.017 2860107 2844157 2831073 2822092 2817031 2814662 2813296 2811278 
461.874 2807210 2799853 2787944 2769771 2744623 2712295 2674021 2632755 
465.731 2592860 2559127 2535664 2524625 2525705 2536122 2551350 2566205 
469.588 2575928 2577011 2567580 2547497 2518149 2482199 2443215 2405263 
473.445 2372207 2347050 2331224 2324239 2323850 2326710 2329382 2329394 
477.302 2325816 2319296 2311425 2303806 2297224 2291293 2284654 2275759 
481.159 2263644 2248558 2231865 2215563 2201478 2190593 2182846 2177444 
485.016 2173560 2170957 2170257 2172704 2179404 2190595 2205082 2220435 
488.873 2233616 2242113 2244888 2242749 2238093 2233887 2232457 2234550 
492.730 2238938 2242877 2243180 2237244 2224714 2207202 2188142 2171853 
496.587 2162215 2161602 2170278 2186380 2206558 2226890 2243890 2255264 
500.444 2260309 2259854 2255907 2250985 2247526 2247292 2251040 2258372 
504.301 2267858 2277352 2284506 2287266 2284433 2275986 2263219 2248538 
508.158 2234921 2225214 2221423 2224158 2232531 2244391 2256935 2267483 
512.015 2274173 2276262 2274180 2269072 2262357 2255169 2248180 2241613 
515.871 2235472 2229820 2224918 2221208 2219087 2218662 2219559 2220946 
519.728 2221683 2220636 2216969 2210310 2200796 2189000 2175798 2162252 
523.585 2149483 2138567 2130404 2125376 2123624 2124582 2127171 2130109 
527.442 2132213 2132668 2131206 2127928 2123165 2117177 2110079 2101898 
531.299 2092810 2083366 2074563 2067611 2063573 2062878 2065050 2068771 
535.156 2072302 2074074 2073238 2069894 2064892 2059343 2053999 2048898 
539.013 2043365 2036467 2027631 2017109 2006163 1996682 1990527 1988823 
542.870 1991509 1997355 2004493 2011075 2015938 2018922 2020786 2022753 
546.727 2025960 2031062 2038071 2046501 2055727 2065247 2074863 2084572 
550.584 2094409 2104186 2113428 2121410 2127441 2131123 2132608 2132647 
554.441 2132457 2133480 2137015 2143813 2154147 2167466 2182586 2197929 
558.298 2211811 2222718 2229575 2231840 2229549 2223166 2213530 2201677 
562.155 2188804 2176207 2165248 2157216 2153176 2153719 2158764 2167435 
566.012 2178217 2189225 2198739 2205558 2209432 2211040 2211820 2213529 
569.869 2217750 2225466 2236849 2251251 2267340 2283476 2297971 2309517 
573.725 2317351 2321426 2322487 2321856 2321221 2322210 2326041 2333165 
577.582 2343229 2355212 2367762 2379707 2390408 2399923 2408949 2418474 
581.439 2429357 2441953 2456033 2470815 2485364 2498899 2511163 2522490 
585.296 2533752 2545951 2559972 2576177 2594337 2613574 2632573 2649923 
589.153 2664331 2674916 2681356 2683881 2683201 2680336 2676444 2672574 
593.010 2669565 2667984 2668137 2670158 2674097 2679931 2687612 2696930 
596.867 2707500 2718660 2729544 2739216 2746905 2752275 2755605 2757893 
600.724 2760754 2766125 2775918 2791541 2813600 2841654 2874244 2909142 
604.581 2943753 2975644 3002996 3024935 3041631 3054156 3064130 3073289 
608.438 3083045 3094215 3106922 3120751 3135022 3149113 3162759 3176174 
612.295 3190022 3205283 3222989 3243950 3268597 3296809 3327958 3360979 
616.152 3394532 3427202 3457753 3485299 3509437 3530351 3548724 3565605 
620.009 3582270 3599916 3619575 3641856 3666997 3694751 3724519 3755339 
623.866 3786061 3815468 3842507 3866480 3887229 3905223 3921461 3937239 
627.723 3953804 3971991 3991967 4013217 4034729 4055392 4074396 4091489 
631.579 4107074 4121983 4137178 4153379 4170890 4189552 4208938 4228551 
635.436 4248011 4267109 4285675 4303425 4319902 4334491 4346735 4356519 
639.293 4364339 4371220 4378484 4387294 4398298 4411398 4425866 4440738 
643.150 4455271 4469346 4483535 4498871 4516395 4536691 4559637 4584438 
647.007 4609968 4635165 4659419 4682628 4704995 4726782 4747989 4768327 
650.864 4787405 4805085 4821792 4838529 4856667 4877434 4901389 4928089 
654.721 4956170 4983724 5008939 5030652 5048663 5063641 5076758 5089147 
658.578 5101529 5114126 5126786 5139337 5151901 5164977 5179285 5195433 
662.435 5213584 5233291 5253590 5273272 5291328 5307233 5321064 5333352 
666.292 5344814 5356029 5367270 5378510 5389591 5400428 5411210 5422423 
670.149 5434709 5448685 5464652 5482499 5501654 5521169 5539926 5556876 
674.006 5571217 5582592 5591200 5597756 5603430 5609597 5617566 5628285 
677.863 5642067 5658516 5676624 5695032 5712314 5727446 5739921 5749877 
681.720 5757870 5764672 5771007 5777400 5784166 5791485 5799542 5808604 
685.577 5818986 5830937 5844446 5859181 5874492 5889569 5903788 5916893 
689.433 5929233 5941619 5955117 5970570 5988288 6007744 6027668 6046334 
693.290 6062062 6073775 6081345 6085709 6088608 6092118 6098002 6107261 
697.147 6119887 6134941 6150932 6166297 6179874 6191119 6200145 6207427 
701.004 6213474 6218531 6222430 6224658 6224621 6221875 6216340 6208330 
704.861 6198430 6187269 6175339 6162881 6149921 6136382 6122198 6107316 
708.718 6091589 6074618 6055579 6033214 6005974 5972400 5931528 5883218 
712.575 5828266 5768196 5704886 5639968 5574478 5508595 5441780 5373068 
716.432 5301471 5226372 5147568 5065273 4979868 4891668 4800866 4707599 
720.289 4612197 4515455 4418761 4324051 4233438 4148852 4071543 4001902 
724.146 3939538 3883577 3833152 3787870 3747997 3714469 3688562 3671524 
728.003 3664193 3666937 3679686 3702303 3734868 3777963 3832663 3900305 
731.860 3982155 4078944 4190604 4316129 4453702 4600921 4755069 4913373 
735.717 5073157 5231930 5387490 5537985 5682090 5819098 5948949 6072204 
739.574 6189775 6302636 6411580 6516989 6618961 6717411 6812282 6903824 
743.431 6992542 7079135 7164253 7248299 7331350 7413215 7493668 7572694 
747.287 7650678 7728421 7806999 7887457 7970524 8056314 8144286 8233206 
751.144 8321301 8406459 8486432 8559039 8622347 8674809 8715340 8743310 
755.001 8758392 8760355 8748920 8723558 8683652 8628611 8558224 8472931 
758.858 8373905 8262950 8142210 8013752 7879286 7739961 7596523 7449533 
762.715 7299632 7147738 6995033 6842801 6692192 6544107 6399075 6257391 
766.572 6119277 5984949 5854645 5728511 5606488 5488224 5373219 5261019 
770.429 5151488 5044983 4942317 4844387 4751873 4664764 4582187 4502596 
774.286 4424187 4345466 4265659 4184918 4104092 4024374 3946786 3871858 
778.143 3799501 3729121 3659919 3591104 3522012 3452156 3381158 3308695 
782.000 3234591 3158972 3082392 3005873 2930735 2858307 2789478 2724455 
785.857 2662657 2602921 2543930 2484689 2424887 2365055 2306425 2250565 
789.714 2198929 2152448 2111277 2074714 2041387 2009541 1977462 1943831 
793.571 1908080 1870557 1832487 1795755 1762490 1734603 1713304 1698867 
797.428 1690499 1686533 1684769 1682874 1678797 1671080 1659012 1642768 
801.285 1623249 1601982 1580886 1561895 1546768 1536644 1531852 1531874 
805.141 1535437 1540825 1546261 1550242 1551830 1550794 1547528 1542881 
808.998 1537891 1533554 1530546 1529109 1529031 1529766 1530610 1530965 
812.855 1530563 1529569 1528532 1528153 1528959 1531097 1534150 1537353 
816.712 1539810 1541007 1540994 1540521 1540746 1542824 1547461 1554599 
820.569 1563438 1572803 1581522 1588905 1594904 1599996 1604823 1609792 
824.426 1614777 1619144 1621971 1622517 1620611 1616827 1612388 1608884 
828.283 1607732 1609897 1615580 1624293 1635054 1646702 1658201 1668907 
832.140 1678715 1688020 1697728 1708971 1723115 1741358 1764631 1793452 
835.997 1827890 1867716 1912478 1961767 2015330 2073143 2135402 2202355 
839.854 2274203 2350947 2432313 2517721 2606298 2696934 2788304 2878924 
843.711 2967271 3051837 3131259 3204440 3270595 3329344 3380629 3424780 
847.568 3462391 3494370 3521928 3546609 3570331 3595389 3624434 3660403 
851.425 3706397 3765567 3840919 3935070 4050161 4187658 4348287 4532100 
855.282 4738448 4966112 5213238 5477346 5755203 6042767 6335246 6627308 
859.139 6913481 7188688 7448757 7690814 7913418 8116477 8300809 8467718 
862.995 8618395 8753655 8873717 8978304 9066827 9138723 9193642 9231687 
866.852 9253337 9259389 9250762 9228192 9192103 9142508 9079084 9001350 
870.709 8908956 8801962 8680881 8546700 8400603 8243730 8076904 7900582 
874.566 7714993 7520415 7317523 7107591 6892357 6673886 6454140 6234693 
878.423 6016608 5800570 5587208 5377380 5172476 4974412 4785516 4608278 
882.280 4445084 4298056 4168840 4058524 3967464 3895203 3840428 3801128 
886.137 3774905 3759490 3753132 3754860 3764351 3781606 3806349 3837600 
889.994 3873510 3911575 3949078 3983691 4013842 4038764 4058338 4072706 
893.851 4082033 4086483 4086380 4082447 4075917 4068402 4061435 4055915 
897.708 4051771 4047924 4042669 4034338 4021982 4005712 3986708 3966751 
901.565 3947651 3930702 3916427 3904688 3894905 3886450 3878852 3871830 
905.422 3865203 3858899 3852884 3847300 3842573 3839389 3838468 3840268 
909.279 3844662 3850844 3857454 3863053 3866587 3867772 3867132 3865639 
913.136 3864179 3863112 3861956 3859662 3855033 3847362 3836818 3824517 
916.993 3812169 3801506 3793684 3788899 3786388 3784691 3782142 3777343 
920.849 3769433 3758213 3744040 3727628 3709893 3691708 3673841 3656854 
924.706 3641056 3626523 3613152 3600742 3589170 3578429 3568631 3559966 
928.563 3552521 3546231 3540852 3536012 3531478 3527248 3523647 3521199 
932.420 3520402 3521474 3524124 3527547 3530645 3532328 3531885 3529271 
936.277 3525111 3520621 3517285 3516591 3519695 3527326 3539746 3556799 
940.134 3578025 3602817 3630501 3660460 3692191 3725337 3759710 3795209 
943.991 3831843 3869647 3908710 3949169 3991269 4035313 4081719 4130875 
947.848 4183037 4238352 4296734 4357998 4421897 4488188 4556626 4626850 
951.705 4698219 4769752 4839995 4907148 4969166 5023926 5069321 5103339 
955.562 5123973 5129300 5117529 5087289 5037821 4969407 4883422 4782366 
959.419 4669408 4548068 4421638 4292938 4164263 4037435 3914099 3795930 
963.276 3684691 3582233 3490214 3409944 3342153 3286933 3243781 3211723 
967.133 3189469 3175614 3168649 3167175 3169859 3175523 3183220 3192242 
970.990 3202192 3212990 3224890 3238442 3254383 3273528 3296578 3323909 
974.847 3355417 3390476 3428067 3466952 3506080 3544872 3583331 3622045 
978.703 3661853 3703548 3747472 3793357 3840366 3887413 3933537 3978262 
982.560 4021783 4064851 4108512 4153670 4200775 4249660 4299590 4349526 
986.417 4398523 4446000 4491995 4537227 4582765 4629989 4680170 4734284 
990.274 4792828 4855826 4922846 4993217 5066125 5140885 5216943 5294029 
994.131 5372154 5451534 5532543 5615590 5701082 5789324 5880473 5974577 
997.988 6071576 6171408 6274105 6379933 6489347 6603076 6721873 6846441 
1001.845 6977175 7114135 7257040 7405448 7558977 7717585 7881661 8052048 
1005.702 8229887 8416395 8612661 8819622 9037978 9268412 9511636 9768487 
1009.559 10039815 10326431 10628901 10947522 11282333 11633211 12000056 
1012.934 12382868 12781703 13196591 13627310 14073280 14533518 15006705 
1016.309 15491305 15985799 16488694 16998566 17514042 18033726 18556110 
1019.683 19079674 19602866 20124150 20641894 21154502 21660284 22157728 
1023.058 22645714 23123886 23592738 24053786 24509234 24961696 25413836 
1026.433 25868180 26327270 26793954 27271662 27764692 28277990 28816646 
1029.809 29385254 29987254 30624414 31296762 32002654 32739108 33502024 
1033.184 34286340 35086200 35895052 36705876 37511580 38305360 39081000 
1036.559 39832828 40555452 41243388 41890816 42491604 43039760 43529996 
1039.934 43958388 44322408 44620952 44853720 45020820 45122504 45159428 
1043.310 45132984 45045904 44902336 44707836 44468664 44191344 43881972 
1046.685 43546108 43188764 42814676 42428408 42034488 41637252 41240704 
1050.060 40848232 40462652 40086192 39720584 39367004 39026172 38698116 
1053.435 38382276 38077516 37782584 37496444 37218900 36951028 36695452 
1056.811 36456364 36239304 36050840 35898216 35788824 35730160 35729484 
1060.186 35793804 35929808 36143892 36441828 36828608 37307940 37881912 
1063.561 38550504 39311504 40160616 41092072 42099260 43175564 44314916 
1066.936 45511992 46761824 48059496 49399364 50775020 52179492 53605960 
1070.312 55048400 56502264 57964228 59431816 60902428 62372720 63838400 
1073.687 65294624 66736536 68159912 69560920 70935800 72279736 73586608 
1077.062 74848792 76058072 77206744 78288424 79297784 80229688 81077488 
1080.437 81832144 82481920 83014280 83417936 83685600 83815264 83810376 
1083.813 83678192 83427840 83068416 82608144 82053856 81411776 80687720 
1087.188 79887760 79018144 78085800 77098480 76065448 74997280 73905880 
1090.563 72803152 71699688 70603336 69518392 68445760 67383960 66330640 
1093.938 65284084 64243756 63210516 62185656 61170144 60163868 59165800 
1097.313 58174336 57188468 56208176 55234904 54270808 53318184 52378468 
1100.689 51451928 50537580 49634176 48740904 47858344 46988660 46135448 
1104.064 45302872 44494908 43714572 42963840 42243732 41554980 40898556 
1107.439 40276140 39689956 39142552 38636164 38172396 37751800 37374072 
1110.814 37038280 36743156 36487464 36269952 36089272 35943880 35831836 
1114.190 35750856 35698448 35672216 35669948 35689928 35730840 35791892 
1117.565 35872684 35973280 36094240 36236604 36401688 36590872 36805024 
1120.940 37044188 37306984 37590636 37890912 38202544 38519508 38835292 
1124.315 39143088 39435672 39705428 39944316 40144288 40297788 40398504 
1127.691 40442004 40425908 40349892 40215008 40023104 39776088 39475604 
1131.066 39122916 38719160 38265472 37763144 37213500 36617744 35976724 
1134.441 35291044 34561132 33787704 32972190 32117182 31226460 30305150 
1137.816 29359320 28395772 27421444 26443168 25467208 24499134 23543746 
1141.192 22605284 21687546 20794186 19928826 19095050 18296132 17534914 
1144.567 16813506 16133289 15494995 14898957 14345303 13834192 13365655 
1147.942 12939519 12555028 12210785 11904585 11633695 11395097 11185928 
1151.317 11003688 10846405 10712543 10600931 10510521 10440410 10389834 
1154.693 10358291 10345603 10351903 10377501 10422601 10487167 10570794 
1158.068 10672890 10792890 10930637 11086682 11262362 11459742 11681363 
1161.443 11929957 12208184 12518653 12863967 13247034 13671230 14140646 
1164.818 14660059 15234925 15871125 16574930 17352734 18211054 19156412 
1168.194 20195236 21333794 22577978 23933268 25404468 26995498 28709194 
1171.569 30546722 32507228 34587036 36779056 39072408 41451980 43898328 
1174.944 46387768 48892400 51380216 53815448 56159176 58370508 60408656 
1178.319 62235236 63816984 65127956 66150956 66878296 67311568 67460928 
1181.695 67344224 66985448 66413184 65658452 64752836 63726712 62608092 
1185.070 61422116 60191120 58934708 57670064 56412000 55172820 53962236 
1188.445 52787404 51653208 50562764 49517868 48519504 47568096 46663648 
1191.820 45805828 44994052 44227576 43505804 42828312 42194944 41605360 
1195.196 41058860 40553832 40087712 39657040 39258004 38887060 38541664 
1198.571 38220544 37923644 37651648 37405212 37184124 36986892 36810456 
1201.946 36650564 36502280 36360716 36221680 36082052 35939984 35794748 
1205.321 35646252 35494608 35339640 35180448 35015328 34841748 34656728 
1208.697 34457228 34240676 34005288 33750196 33475422 33181572 32869496 
1212.072 32540026 32193816 31831342 31453022 31059446 30651536 30230632 
1215.447 29798492 29357174 28908884 28455708 27999490 27541736 27083582 
1218.822 26625926 26169494 25715050 25263474 24815830 24373298 23937162 
1222.198 23508644 23088838 22678646 22278644 21889140 21510076 21141108 
1225.573 20781616 20430948 20088490 19753926 19427314 19109144 18800184 
1228.948 18501390 18213588 17937352 17672884 17420056 17178502 16947840 
1232.323 16727677 16517738 16317782 16127497 15946472 15774046 15609436 
1235.698 15451872 15300620 15155233 15015553 14881670 14753896 14632551 
1239.074 14517820 14409648 14307724 14211431 14120054 14032854 13949275 
1242.449 13868994 13792121 13719027 13650352 13586923 13529415 13478342 
1245.824 13433890 13395901 13363956 13337508 13316038 13299179 13286859 
1249.199 13279250 13276732 13279755 13288771 13304107 13325903 13354178 
1252.575 13388722 13429274 13475467 13526951 13583407 13644630 13710475 
1255.950 13780919 13855870 13935205 14018528 14105228 14194471 14285295 
1259.325 14376797 14468192 14558886 14648476 14736459 14822224 14904831 
1262.700 14983083 15055577 15120965 15178047 15226026 15264417 15292960 
1266.076 15311560 15320069 15318264 15305860 15282491 15247874 15201724 
1269.451 15143801 15073842 14991558 14896663 14788923 14668189 14534482 
1272.826 14387886 14228512 14056499 13871929 13674894 13465716 13245036 
1276.201 13013889 12773761 12526304 12273197 12015831 11755154 11491741 
1279.577 11225905 10957995 10688652 10418922 10150257 9884362 9622970 
1282.952 9367730 9120077 8881383 8652973 8436321 8233022 8044684 7872852 
1286.809 7718780 7583367 7467117 7370224 7292590 7233967 7193918 7171739 
1290.667 7166536 7177133 7202109 7239925 7288985 7347697 7414555 7488032 
1294.524 7566616 7648628 7732331 7815866 7897429 7975371 8048394 8115688 
1298.382 8177016 8232649 8283349 8329973 8373404 8414169 8452397 8487826 
1302.239 8519966 8548297 8572558 8592846 8609656 8623759 8635997 8647112 
1306.096 8657634 8667789 8677597 8686876 8695383 8702767 8708672 8712700 
1309.954 8714520 8713908 8710918 8705819 8699170 8691584 8683741 8676149 
1313.811 8669193 8663052 8657946 8654058 8651629 8650826 8651712 8654052 
1317.669 8657412 8661221 8664973 8668336 8671330 8674182 8677219 8680616 
1321.526 8684414 8688414 8692414 8696378 8700599 8705759 8712818 8722764 
1325.384 8736427 8754306 8776613 8803348 8834427 8869825 8909622 8953923 
1329.241 9002881 9056544 9114960 9178098 9245905 9318295 9395081 9475923 
1333.098 9560359 9647895 9738217 9831311 9927595 10027828 10132769 10243000 
1336.956 10358528 10478706 10602445 10728519 10856101 10985032 11115997 
1340.331 11250332 11389670 11535373 11688329 11848597 12015738 12188922 
1343.706 12367348 12550512 12738228 12930639 13127968 13330333 13537620 
1347.082 13749468 13965309 14184406 14405991 14629182 14852980 15076146 
1350.457 15297210 15514497 15726236 15930687 16126354 16312018 16486752 
1353.832 16649818 16800592 16938396 17062504 17172142 17266626 17345528 
1357.207 17408784 17456834 17490574 17511326 17520630 17520036 17510984 
1360.583 17494744 17472316 17444704 17412880 17377872 17340654 17301888 
1363.958 17261678 17219248 17172856 17119930 17057318 16981726 16890112 
1367.333 16780008 16649783 16498682 16327059 16136514 15930259 15713346 
1370.708 15492894 15278019 15079416 14908756 14777736 14697202 14676198 
1374.083 14721215 14835668 15019387 15268494 15575437 15929253 16316161 
1377.459 16720496 17125768 17515842 17876066 18194176 18460556 18668228 
1380.834 18812448 18890262 18900046 18841500 18715646 18524950 18273270 
1384.209 17965798 17608538 17207974 16770591 16302687 15810128 15298377 
1387.584 14772327 14236507 13694790 13150631 12606913 12065987 11529720 
1390.960 10999572 10476721 9962397 9458151 8966218 8489627 8032115 7597700 
1394.817 7190114 6812149 6465235 6149284 5862998 5604260 5370728 5160118 
1398.675 4970458 4799986 4647052 4509899 4386732 4275700 4175216 4083929 
1402.532 4000996 3925906 3858393 3798282 3745335 3699126 3659107 3624558 
1406.389 3594716 3568787 3545999 3525531 3506624 3488430 3470244 3451373 
1410.247 3431414 3410250 3388251 3366199 3345292 3326877 3312211 3302082 
1414.104 3296622 3295254 3296793 3299796 3303009 3305620 3307528 3309248 
1417.962 3311737 3315893 3322374 3331355 3342518 3355280 3369142 3383759 
1421.819 3399276 3416135 3435047 3456695 3481621 3510109 3542226 3577832 
1425.677 3616775 3658940 3704311 3752933 3804974 3860645 3920257 3984236 
1429.534 4053218 4128006 4209565 4298923 4397103 4505042 4623683 4754057 
1433.391 4897550 5056029 5231961 5428414 5648773 5896519 6174971 6486987 
1437.249 6835127 7221563 7648310 8117141 8629384 9185529 9784862 10425011 
1441.106 11101943 11810029 12542315 13290901 14047249 14802383 15547250 
1444.481 16273020 16971554 17635644 18259438 18838244 19368606 19847914 
1447.857 20274424 20647156 20966076 21231996 21446534 21611804 21730066 
1451.232 21803514 21834026 21823116 21771962 21681158 21550744 21379988 
1454.607 21167536 20911802 20611582 20266672 19878340 19449336 18983388 
1457.982 18484556 17956714 17403182 16827066 16231543 15620229 14997333 
1461.358 14367443 13735071 13104466 12479382 11863273 11259496 10671459 
1464.733 10102564 9555894 9033824 8537880 8068593 7625908 7209452 6818966 
1468.590 6454274 6115336 5801894 5513343 5248516 5005782 4783224 4578924 
1472.448 4391113 4218446 4059915 3914895 3782885 3663411 3555818 3459053 
1476.305 3371817 3292536 3219668 3151965 3088669 3029653 2975192 2925771 
1480.163 2881639 2842626 2808016 2776770 2747773 2720211 2693688 2668328 
1484.020 2644410 2622289 2602068 2583560 2566352 2550004 2534162 2518681 
1487.877 2503517 2488685 2474133 2459807 2445678 2431934 2418967 2407354 
1491.735 2397678 2390342 2385301 2382175 2380214 2378614 2376720 2374148 
1495.592 2370858 2366995 2362821 2358552 2354311 2350211 2346325 2342811 
1499.450 2339790 2337307 2335311 2333562 2331739 2329554 2326809 2323510 
1503.307 2319724 2315636 2311287 2306620 2301454 2295592 2288957 2281677 
1507.165 2274093 2266680 2259910 2254171 2249587 2246185 2243796 2242197 
1511.022 2241146 2240390 2239694 2238843 2237653 2236057 2234040 2231709 
1514.879 2229180 2226633 2224095 2221575 2218944 2216088 2212887 2209298 
1518.737 2205274 2200848 2196107 2191169 2186224 2181572 2177516 2174375 
1522.594 2172291 2171159 2170563 2169950 2168554 2165883 2161638 2155964 
1526.452 2149279 2142234 2135426 2129294 2124004 2119507 2115577 2112001 
1530.309 2108521 2105060 2101502 2097826 2094002 2090091 2086146 2082346 
1534.167 2078857 2075860 2073405 2071422 2069621 2067650 2065042 2061376 
1538.024 2056346 2049857 2041998 2033125 2023774 2014676 2006589 2000218 
1541.881 1995985 1994029 1994084 1995534 1997581 1999369 2000273 1999906 
1545.739 1998198 1995316 1991478 1986961 1981865 1976344 1970450 1964346 
1549.596 1958239 1952387 1946992 1942106 1937626 1933407 1929164 1924707 
1553.454 1919961 1914899 1909597 1904132 1898558 1892948 1887474 1882341 
1557.311 1877873 1874474 1872379 1871658 1872083 1873182 1874341 1875031 
1561.168 1874871 1873775 1871938 1869689 1867445 1865620 1864522 1864404 
1565.026 1865357 1867377 1870271 1873696 1877155 1880108 1882086 1882814 
1568.883 1882314 1880898 1879054 1877326 1876083 1875600 1875849 1876751 
1572.741 1878167 1880002 1882213 1884698 1887281 1889662 1891475 1892429 
1576.598 1892374 1891503 1890190 1889010 1888496 1889062 1890935 1894219 
1580.456 1898877 1904896 1912098 1920216 1928727 1936882 1943791 1948756 
1584.313 1951412 1952000 1951276 1950340 1950181 1951369 1953834 1956955 
1588.170 1959833 1961722 1962410 1962247 1962045 1962727 1964906 1968718 
1592.028 1973830 1979689 1985791 1991977 1998473 2005657 2013879 2023179 
1595.885 2033167 2043324 2053064 2062107 2070523 2078623 2086772 2095128 
1599.743 2103556 2111704 2119274 2126284 2133124 2140586 2149505 2160452 
1603.600 2173439 2187923 2202890 2217259 2230199 2241309 2250678 2258739 
1607.458 2266057 2273203 2280629 2288649 2297546 2307506 2318565 2330620 
1611.315 2343219 2355794 2367704 2378472 2388009 2396618 2404828 2413264 
1615.172 2422300 2431945 2441812 2451343 2459936 2467331 2473553 2479017 
1619.030 2484223 2489655 2495646 2502246 2509391 2516891 2524518 2532039 
1622.887 2539246 2545950 2552006 2557356 2562006 2566084 2569716 2573032 
1626.745 2576047 2578723 2580914 2582585 2583764 2584623 2585360 2586097 
1630.602 2586767 2587195 2587074 2586207 2584558 2582365 2579973 2577708 
1634.459 2575672 2573607 2571006 2567312 2562207 2555872 2548937 2542466 
1638.317 2537443 2534589 2534000 2535168 2537068 2538580 2538756 2537163 
1642.174 2533968 2529856 2525759 2522658 2521259 2521869 2524376 2528369 
1646.032 2533195 2538306 2543256 2547847 2552072 2556051 2559834 2563465 
1649.889 2566792 2569679 2572029 2573971 2575812 2578118 2581487 2586442 
1653.747 2593184 2601640 2611386 2621890 2632560 2642861 2652326 2660584 
1657.604 2667325 2672422 2675943 2678244 2680061 2682250 2685639 2690811 
1661.461 2697838 2706315 2715501 2724636 2733330 2741669 2750260 2759984 
1665.319 2771572 2785389 2801177 2818189 2835473 2852217 2867888 2882460 
1669.176 2896087 2909073 2921498 2933239 2944003 2953602 2962129 2970107 
1673.034 2978407 2987994 2999617 3013606 3029694 3047143 3064924 3082127 
1676.891 3098132 3112757 3126219 3139047 3151837 3165177 3179473 3195029 
1680.749 3211983 3230485 3250587 3272255 3295376 3319649 3344537 3369465 
1684.606 3393818 3417256 3439795 3461849 3484185 3507764 3533440 3561851 
1688.463 3593273 3627671 3664750 3704306 3746131 3790293 3836806 3885766 
1692.321 3936999 3990111 4044593 4099958 4156018 4212952 4271348 4332108 
1696.178 4396076 4463914 4535814 4611613 4690959 4773651 4859658 4949449 
1700.036 5043743 5143432 5249214 5361410 5479846 5604028 5733245 5867068 
1703.893 6005360 6148640 6297891 6454494 6619783 6794889 6980376 7176331 
1707.750 7382349 7597909 7822498 8055833 8297934 8549038 8809397 9079185 
1711.608 9358443 9647049 9944831 10251655 10567351 10891790 11224592 
1714.983 11565293 11913200 12267637 12628043 12994052 13365501 13742270 
1718.358 14124143 14510795 14901841 15297310 15697913 16105393 16522449 
1721.734 16952566 17399570 17867310 18359402 18879388 19431040 20018710 
1725.109 20647456 21323020 22051422 22838776 23690968 24613742 25612962 
1728.484 26694820 27866020 29133680 30505184 31988164 33590676 35321400 
1731.859 37189920 39206372 41380416 43719568 46227308 48901804 51736028 
1735.235 54719184 57839148 61084664 64445936 67913576 71475640 75114360 
1738.610 78803568 82508560 86188096 89798448 93297136 96645816 99811008 
1741.985 102763536 105477632 107931008 110105584 111988640 113573040 
1744.878 114856872 115841792 116532336 116935408 117061248 116923808 
1747.771 116540680 115931152 115114256 114106464 112921632 111572000 
1750.664 110070608 108432712 106676080 104818632 102876064 100859248 
1753.557 98773680 96621008 94402176 92120448 89783648 87404200 84997752 
1756.933 82580624 80167760 77771216 75400368 73062376 70763248 68508568 
1760.308 66303976 64154936 62066956 60045092 58094044 56217748 54418988 
1763.683 52698888 51056756 49489968 47994600 46566244 45201120 43896528 
1767.058 42651104 41464140 40334772 39260884 38238652 37262560 36326040 
1770.434 35422384 34545784 33691720 32857326 32040832 31241050 30456684 
1773.809 29685942 28926166 28174090 27426062 26678446 25928030 25172510 
1777.184 24410616 23642320 22868720 22091810 21314194 20538732 19768302 
1780.559 19005666 18253322 17513750 16789186 16081966 15394270 14728197 
1783.935 14085506 13467549 12875144 12308580 11767706 11252209 10761726 
1787.310 10296219 9855795 9440823 9051628 8688250 8350333 8036925 7746630 
1791.167 7477623 7227818 6995227 6778020 6574885 6385018 6208181 6044408 
1795.025 5893886 5756457 5631437 5517418 5412462 5314235 5220617 5129825 
1798.882 5040834 4953214 4867165 4783126 4701674 4623471 4549075 4478948 
1802.740 4413322 4351956 4294104 4238340 4182977 4126441 4067881 4007558 
1806.597 3946999 3888607 3835050 3788312 3749257 3717164 3690106 3665406 
1810.454 3640568 3613570 3583357 3549655 3512829 3473390 3432123 3389727 
1814.312 3347275 3305922 3267176 3232403 3202829 3179054 3161107 3148387 
1818.169 3139951 3134583 3131024 3127858 3123593 3116702 3105622 3089354 
1822.027 3067564 3040718 3010145 2977430 2944133 2911166 2878784 2846468 
1825.884 2813509 2779293 2743746 2707394 2671203 2636243 2603384 2572969 
1829.741 2545035 2519237 2495280 2472933 2452163 2432878 2414814 2397352 
1833.599 2379602 2360545 2339511 2316275 2291549 2266569 2242959 2221985 
1837.456 2204110 2188626 2173726 2156999 2136317 2110471 2079889 2046475 
1841.314 2013170 1982914 1957939 1938658 1924081 1911970 1900011 1886452 
1845.171 1870943 1854169 1837491 1821884 1807548 1793465 1778093 1759867 
1849.029 1738255 1713983 1689162 1666438 1648379 1636481 1631008 1630944 
1852.886 1634601 1640028 1645664 1650256 1653056 1653379 1650765 1644872 
1856.743 1635794 1624100 1611083 1598395 1587855 1580911 1578311 1579877 
1860.601 1584662 1591009 1597165 1601215 1601869 1598317 1590589 1579148 
1864.458 1565006 1549097 1532287 1514818 1496738 1477948 1458629 1439526 
1868.316 1422023 1407596 1397486 1391797 1389470 1388176 1385318 1378743 
1872.173 1367711 1353066 1337179 1322947 1313077 1309129 1311404 1318915 
1876.031 1330216 1343533 1357276 1369833 1379727 1385361 1385520 1379669 
1879.888 1368704 1354725 1341103 1331081 1327201 1330121 1338629 1350002 
1883.745 1361250 1369914 1375052 1376833 1376372 1374652 1372061 1368253 
1887.603 1362746 1355449 1347303 1340089 1336008 1336559 1341930 1350347 
1891.460 1358898 1363986 1362791 1353886 1337760 1316380 1292669 1269723 
1895.318 1250343 1236600 1229931 1230837 1238966 1252712 1269130 1284243 
1899.175 1293626 1293187 1280560 1255600 1220898 1181087 1142240 1110125 
1903.032 1089607 1083078 1090812 1110527 1138416 1169561 1199273 1223586 
1906.890 1240229 1248715 1250590 1248365 1245046 1242388 1240504 1237111 
1910.747 1228427 1210172 1179621 1136713 1085285 1032298 986612 956197 
1914.605 946286 957487 985770 1023466 1061821 1093057 1112581 1119765 
1918.462 1117411 1110018 1102415 1097549 1096554 1098384 1101168 1102767 
1922.320 1101818 1097382 1089025 1076048 1057682 1033073 1002216 966360 
1926.177 928422 892529 863232 843840 836173 839673 852047 870087 890667 
1930.517 911055 929446 944025 953240 955097 948107 931701 907065 876982 
1934.856 845834 817965 797252 785340 782692 788180 800853 820063 846099 
1939.196 879097 918783 962726 1006851 1045407 1072734 1084289 1078625 
1943.053 1057169 1024763 988000 954121 928872 916089 916133 926811 942845 
1947.393 958197 966580 963470 946678 917337 878448 834853 790600 749035 
1951.732 711227 677276 646178 617357 589953 563613 537144 509387 478654 
1956.072 444874 410023 379357 360071 360290 384689 433417 499703 571897 
1960.412 636754 683902 708286 712098 701403 684706 667538 652299 637089 
1964.751 619329 596489 569914 542553 519456 503847 496737 495468 496738 
1969.091 496984 495846 495074 498518 507902 522037 534215 534405 511437 
1973.430 458090 373477 267302 158394 73274 39346 79805 205452 411313 674180 
1978.252 958989 1226261 1442985 1589272 1661501 1667960 1624776 1548175 
1982.110 1451706 1343015 1226718 1106713 990336 888847 817373 788953 811214 
1986.449 880401 982424 1094580 1193317 1260195 1288555 1283415 1259894 
1990.307 1236583 1228767 1243708 1279110 1323980 1364716 1387994 1386611 
1994.164 1359236 1310907 1249832 1185386 1124722 1072817 1030782 997992 
1998.021 971558 948821 926722 903466 877053 846138 807750 759072 695474 
2002.361 613557 511823 393156 265124 140949 35091 -37895 -69397 -58102 
2006.701 -11481 58482 138815 222062 306458 396893 498474 612071 729773 
2011.040 835238 905714 920407 865936 743737 570047 373544 186710 39229 
2015.380 -52235 -84816 -70859 -30993 10393 34343 30230 -1137 -50162 -100613 
2020.202 -136646 -144419 -116630 -51969 45262 167419 303996 444382 576648 
2024.541 689865 774361 825053 842537 835742 819908 814238 834493 889155 
2028.881 972574 1066802 1144406 1178466 1149960 1057700 917818 762259 627497 
2033.220 544879 530331 582009 681195 801406 916514 1009893 1076013 1119655 
2037.560 1149303 1171988 1188426 1193965 1180078 1140974 1076840 996041 
2041.417 913590 847207 810242 809300 840535 892785 950999 1002240 1039945 
2045.757 1066645 1091657 1128361 1187532 1273518 1380231 1492175 1587563 
2049.615 1645099 1649291 1594840 1486171 1336857 1165376 992377 837539 
2053.472 717204 641757 614810 631827 682255 750304 818595 870411 892671 
2057.812 877181 823265 736936 631925 526177 439779 389878 387856 435777 
2062.151 526772 645914 775074 896586 998173 1074774 1128547 1166158 1195901 
2066.491 1222988 1249040 1270971 1283457 1281573 1263587 1231915 1193262 
2070.348 1155802 1127477 1112751 1112176 1122084 1136894 1150467 1158814 
2074.206 1160469 1157132 1151816 1148210 1148581 1153908 1163077 1174525 
2078.063 1186266 1197735 1209049 1221550 1236280 1253717 1272382 1289737 
2081.920 1301931 1306020 1300133 1285106 1263837 1241051 1221060 1207211 
2085.778 1200025 1197893 1197021 1193296 1183228 1165187 1138991 1106078 
2089.635 1067585 1024735 977719 927059 873731 820669 772186 734228 711947 
2093.975 708874 724739 755717 794668 833745 866355 889170 902434 909557 
2098.314 914758 921262 929442 936817 938467 929520 906766 870860 826208 
2102.654 780539 742304 719022 714205 727463 753800 786264 817515 842395 
2106.994 858977 869021 876574 887037 904499 931644 968728 1014476 1066288 
2111.333 1121595 1177569 1231559 1280147 1319733 1346169 1355909 1346797 
2115.191 1319252 1276107 1222745 1165313 1109971 1060953 1020292 987391 
2119.048 960177 935605 911305 885411 857506 827624 796279 763546 729513 
2123.388 693528 654827 612021 563705 507830 442842 367549 282776 191362 
2127.727 99171 13539 -57420 -107771 -135376 -143455 -139744 -135179 -139772 
2132.067 -160525 -197429 -244323 -289806 -321485 -329972 -313319 -277223 
2135.924 -234737 -200985 -189564 -207322 -253776 -320275 -394482 -463008 
2139.782 -516400 -550303 -567855 -576867 -588145 -611549 -653852 -715894 
2143.639 -793473 -877159 -956299 -1020957 -1065515 -1089708 -1099224 
2147.014 -1102789 -1110222 -1127798 -1157275 -1194151 -1230657 -1257291 
2150.390 -1268025 -1261082 -1241560 -1219399 -1208839 -1224578 -1280428 
2153.765 -1385550 -1544219 -1751561 -1994518 -2248280 -2479741 -2649490 
2157.140 -2720659 -2668123 -2490314 -2213362 -1889876 -1580523 -1336688 
2160.515 -1182565 -1111994 -1094966 -1092137 -1067244 -998354 -879822 
2163.891 -722841 -548402 -381084 -241547 -143930 -91912 -82286 -104341 
2167.748 -144367 -187175 -219101 -229962 -216165 -179828 -130003 -78957 
2171.605 -39844 -21990 -29313 -58264 -100046 -141915 -172989 -184953 -176210 
2175.945 -151592 -121002 -96894 -91979 -113976 -165357 -239345 -322174 
2179.802 -393626 -432617 -421506 -353187 -232899 -79455 80588 217757 309727 
2184.142 345021 326262 267254 188810 112005 54306 24901 25479 50671 91354 
2188.964 137389 181199 218510 250394 281415 317982 364696 422441 485249 
2193.303 542556 580373 586601 554535 485599 388732 278448 169066 72977 -3094 
2198.125 -55472 -82730 -81955 -49565 17707 118265 243053 373835 487511 
2202.465 561028 580381 544870 469107 378184 300556 258367 262308 308893 
2206.804 383993 468818 546693 607081 647373 670494 682548 689121 694679 
2211.144 702166 714484 734239 764661 806707 859081 916417 970514 1011759 
2215.484 1031950 1026335 995478 945086 885429 829267 789823 778077 800843 
2219.823 858605 945217 1047913 1150472 1235735 1289699 1304115 1277822 
2223.681 1216243 1129623 1030369 931368 844239 778828 742645 740241 771597 
2228.020 832167 911999 998199 1077348 1139551 1181081 1205305 1220508 
2231.878 1237000 1262052 1297939 1340749 1382665 1414897 1431019 1428381 
2235.735 1408147 1373509 1328200 1275291 1217757 1159287 1105163 1061846 
2239.593 1035709 1030209 1045152 1075485 1113563 1151400 1183771 1209116 
2243.450 1229713 1248937 1269326 1290346 1308951 1320590 1322103 1313242 
2247.307 1297594 1280825 1269243 1266640 1273555 1287127 1302188 1313297 
2251.165 1316731 1310790 1296816 1278068 1259420 1246046 1242758 1252488 
2255.022 1275650 1309097 1346934 1381625 1406541 1418185 1417941 1411344 
2258.880 1406839 1412045 1431384 1463990 1504401 1544603 1577443 1598995 
2262.737 1610088 1615004 1619710 1628467 1642836 1661068 1679616 1694875 
2266.594 1705328 1711584 1716229 1721847 1730077 1740605 1751874 1761717 
2270.452 1768945 1773534 1776692 1779913 1784139 1789080 1793548 1795923 
2274.309 1795475 1792594 1789458 1789069 1794478 1807787 1829626 1858569 
2278.167 1892255 1927492 1961592 1992573 2019807 2043534 2064838 2084781 
2282.024 2103987 2122200 2138437 2151305 2159555 2162826 2161797 2158198 
2285.882 2154358 2152397 2153656 2158246 2165014 2171972 2176925 2177919 
2289.739 2173942 2164705 2150937 2134054 2115871 2098530 2084031 2073872 
2293.596 2068854 2068613 2071928 2076796 2081178 2083448 2082891 2079661 
2297.454 2074369 2067591 2059341 2049051 2035826 2019060 1999241 1977902 
2301.311 1957678 1941314 1930981 1927402 1929813 1936162 1944024 1951151 
2305.169 1956122 1958425 1958304 1956243 1952997 1949265 1946086 1944753 
2309.026 1946782 1953570 1966099 1984310 2007210 2033056 2059677 2084978 
2312.884 2107337 2125444 2138565 2146194 2148341 2145717 2139932 2133581 
2316.741 2129831 2131639 2141244 2159454 2185956 2219750 2260061 2306822 
2320.598 2360542 2421322 2487358 2553828 2612495 2652807 2664359 2639553 
2324.456 2575929 2476945 2351723 2212867 2074050 1947408 1841413 1759843 
2328.313 1701995 1663828 1639744 1624505 1614195 1606824 1601922 1599523 
2332.171 1599673 1601841 1604968 1607876 1609615 1609963 1609375 1608733 
2336.028 1609018 1610797 1614221 1618914 1624324 1629981 1635688 1641516 
2339.885 1647551 1653628 1659195 1663085 1664050 1660969 1653366 1641666 
2343.743 1627224 1611957 1597901 1586620 1579006 1575075 1574143 1575169 
2347.600 1577128 1579080 1580337 1580495 1579246 1576439 1572231 1566842 
2351.458 1560835 1554722 1548916 1543566 1538310 1532585 1525772 1517469 
2355.315 1507816 1497352 1487036 1477588 1469571 1462819 1456833 1450631 
2359.173 1443412 1434407 1423250 1409703 1393702 1375285 1354494 1331708 
2363.030 1307640 1283427 1260517 1240489 1224636 1213814 1208271 1207676 
2366.887 1211406 1218597 1228388 1239908 1252362 1264990 1277227 1288738 
2370.745 1299548 1310004 1320529 1331323 1342170 1352280 1360524 1365702 
2374.602 1367239 1365260 1360832 1355636 1351268 1348853 1348632 1349871 
2378.460 1351430 1352104 1351283 1349153 1346581 1344752 1344777 1347120 
2382.317 1351647 1357632 1364155 1370489 1376338 1381989 1388107 1395469 
2386.175 1404710 1415800 1428185 1440441 1450954 1458060 1460707 1458794 
2390.032 1453563 1447190 1442509 1441973 1447077 1457666 1472015 1487095 
2393.889 1499746 1507388 1508851 1504549 1496316 1486477 1477400 1470447 
2397.747 1466311 1464712 1465160 1467155 1470482 1474980 1480487 1486272 
2401.604 1491292 1494151 1493676 1489138 1480729 1469498 1457214 1445831 
2405.462 1437337 1433237 1434494 1441484 1453928 1470998 1491234 1512681 
2409.319 1533160 1550547 1563267 1570455 1572318 1569947 1565004 1559248 
2413.177 1554260 1550992 1549873 1550824 1553399 1556869 1560495 1563350 
2417.034 1564694 1563884 1560691 1555220 1548088 1540018 1531733 1523552 
2420.891 1515343 1506375 1495874 1483392 1468961 1453508 1438637 1426140 
2424.749 1417678 1414141 1415636 1421115 1429017 1437363 1444457 1449042 
2428.606 1450782 1450010 1447980 1446145 1446105 1448891 1454830 1463239 
2432.464 1472748 1481484 1487836 1490838 1490495 1487771 1484212 1481477 
2436.321 1480772 1482383 1485739 1489523 1492087 1492111 1489021 1483209 
2440.178 1476197 1470248 1467931 1471281 1481195 1496769 1515382 1533051 
2444.036 1545563 1549533 1543814 1529790 1511315 1493411 1480971 1477069 
2447.893 1482262 1494441 1510099 1525345 1537421 1545169 1549156 1550664 
2451.751 1551125 1551175 1550903 1550003 1548361 1546595 1545636 1546419 
2455.608 1548934 1552137 1553994 1552292 1545657 1534368 1520474 1507046 
2459.466 1497276 1493049 1494474 1499819 1506489 1512029 1515114 1515808 
2463.323 1515583 1516227 1519340 1525543 1534483 1544986 1555534 1564562 
2467.180 1570832 1573138 1570699 1563080 1550628 1534346 1516324 1498988 
2471.038 1484762 1475246 1471009 1471212 1474365 1478815 1483366 1487529 
2474.895 1491569 1495934 1500959 1506393 1511605 1515678 1517805 1517451 
2478.753 1514564 1509194 1501656 1492207 1481406 1469893 1458618 1448582 
2482.610 1440627 1435038 1431672 1430023 1429734 1430963 1434512 1441467 
2486.468 1452601 1467599 1484752 1501137 1513483 1519362 1518059 1510832 
2490.325 1500650 1490958 1484527 1482496 1484289 1487859 1490994 1491894 
2494.182 1490197 1486580 1482794 1480558 1481246 1485331 1492462 1501476 
2498.040 1511031 1519566 1526115 1530197 1532315 1533871 1536747 1542877 
2501.897 1553466 1568299 1585917 1603838 1619471 1631068 1638400 1642381 
2505.755 1644576 1645812 1645741 1642203 1632634 1614855 1588891 1557248 
2509.612 1524759 1496963 1478514 1471377 1474746 1485187 1498544 1511080 
2513.469 1520895 1527666 1532571 1536778 1540994 1545246 1549255 1552926 
2517.327 1556802 1561864 1568909 1577955 1587742 1596000 1600508 1599788 
2521.184 1594111 1585158 1575568 1567373 1561398 1556650 1551095 1542670 
2525.042 1530570 1515742 1500988 1489530 1484077 1485371 1492183 1501401 
2528.899 1509587 1513902 1513333 1508793 1502952 1499132 1500361 1508642 
2532.757 1524286 1546033 1571411 1597111 1619784 1636595 1645775 1646762 
2536.614 1640302 1628029 1612213 1595020 1578351 1563599 1551855 1544025 
2540.471 1540887 1543032 1550608 1562860 1577930 1593024 1605073 1611295 
2544.329 1610189 1601914 1588494 1573248 1560035 1552278 1552367 1561007 
2548.186 1577436 1599313 1623619 1646868 1666082 1679171 1685521 1685814 
2552.044 1682227 1677479 1674412 1674960 1679804 1688130 1697963 1706786 
2555.901 1712182 1712453 1706969 1696175 1681454 1664898 1648775 1635455 
2559.759 1627191 1625371 1630757 1642870 1660158 1680187 1700262 1717838 
2563.616 1731368 1740227 1745146 1747451 1748877 1751036 1755028 1761198 
2567.473 1769385 1778577 1787437 1794139 1796950 1794475 1786149 1772559 
2571.331 1755547 1737769 1722428 1712164 1708719 1712347 1722187 1736267 
2575.188 1752503 1768826 1783717 1796031 1805130 1810701 1812855 1812134 
2579.046 1809694 1807019 1805741 1807069 1811482 1818392 1826505 1834134 
2582.903 1839878 1842841 1843028 1840978 1837500 1833368 1829320 1826047 
2586.760 1824558 1826048 1832009 1843316 1860104 1880957 1903191 1923307 
2590.618 1937942 1944740 1943014 1933808 1919435 1902692 1886259 1872033 
2594.475 1861255 1854574 1852576 1855683 1864275 1878285 1897063 1919081 
2598.333 1942504 1965117 1985192 2001507 2013613 2021530 2025537 2026000 
2602.190 2023382 2018192 2011208 2003388 1995724 1988882 1983058 1977882 
2606.048 1972817 1967515 1962306 1958310 1957221 1960722 1969871 1984390 
2609.905 2002798 2022642 2041307 2056679 2067606 2073955 2076234 2075100 
2613.762 2071056 2064275 2055022 2043888 2032160 2021725 2014782 2012999 
2617.620 2017096 2026465 2039371 2053485 2066528 2076968 2084354 2089283 
2621.477 2093047 2097148 2102906 2111074 2121689 2134090 2147081 2159023 
2625.335 2168320 2173728 2174642 2171484 2165504 2158626 2152801 2149495 
2629.192 2149250 2151642 2155633 2160132 2164659 2169543 2175859 2184926 
2633.050 2197607 2213692 2231920 2250087 2265965 2277763 2284880 2287677 
2636.907 2287426 2285563 2283110 2280469 2277451 2273488 2268238 2261693 
2640.764 2254316 2246874 2240189 2234849 2231230 2229289 2228945 2229959 
2644.622 2232028 2234749 2237570 2239765 2240683 2239821 2237063 2232774 
2648.479 2227607 2222303 2217536 2213553 2210375 2207716 2205207 2202590 
2652.337 2199739 2196555 2192905 2188625 2183448 2177212 2169987 2162169 
2656.194 2154348 2147214 2141228 2136297 2132002 2127364 2121333 2113057 
2660.052 2102167 2088734 2073403 2056911 2040074 2023413 2007251 1991615 
2663.909 1976505 1961975 1948214 1935456 1924032 1914212 1906061 1899479 
2667.766 1894027 1889212 1884368 1878983 1872562 1865024 1856505 1847443 
2671.624 1838450 1830201 1823326 1818302 1815418 1814801 1816415 1820082 
2675.481 1825561 1832375 1839912 1847425 1854103 1859260 1862363 1863239 
2679.339 1862041 1859065 1854852 1849843 1844382 1838801 1833363 1828275 
2683.196 1823953 1820731 1818899 1818548 1819544 1821470 1823795 1825913 
2687.053 1827407 1828069 1827954 1827377 1826691 1826349 1826667 1827701 
2690.911 1829369 1831318 1833032 1833859 1833199 1830555 1825851 1819323 
2694.768 1811678 1803931 1797161 1792394 1790183 1790693 1793528 1797860 
2698.626 1802694 1807012 1810032 1811392 1811115 1809621 1807635 1805921 
2702.483 1805234 1805957 1808098 1811213 1814476 1816820 1817280 1815227 
2706.341 1810534 1803716 1795822 1788117 1781739 1777327 1774882 1773868 
2710.198 1773363 1772493 1770820 1768509 1766269 1765041 1765629 1768197 
2714.055 1772254 1776640 1780015 1781245 1779880 1776112 1770816 1765026 
2717.913 1759690 1755258 1751683 1748684 1745893 1743193 1740803 1739008 
2721.770 1738144 1738242 1739090 1740368 1741959 1743970 1746945 1751479 
2725.628 1757828 1765721 1774213 1781772 1786922 1788807 1787389 1783758 
2729.485 1779464 1776235 1775143 1776504 1779573 1783278 1786460 1788430 
2733.343 1789132 1789024 1788833 1788993 1789695 1790673 1791540 1791930 
2737.200 1791813 1791438 1791348 1792014 1793775 1796570 1800047 1803499 
2741.057 1806204 1807508 1807042 1804749 1801025 1796608 1792318 1788941 
2744.915 1786800 1785858 1785664 1785487 1784942 1784109 1783776 1785142 
2748.772 1789431 1797160 1807788 1819438 1829418 1834922 1833929 1825890 
2752.630 1811977 1794784 1777651 1763635 1754859 1752109 1754816 1761535 
2756.487 1770435 1779719 1788060 1794588 1798909 1801042 1801274 1800131 
2760.344 1798217 1796136 1794332 1793020 1792051 1791231 1790214 1788807 
2764.202 1787018 1784875 1782480 1779704 1776322 1772026 1766697 1760677 
2768.059 1754581 1749535 1746508 1746160 1748568 1753148 1758958 1765023 
2771.917 1770670 1775779 1780750 1786123 1792403 1799666 1807603 1815506 
2775.774 1822655 1828351 1832349 1834591 1835396 1835200 1834453 1833659 
2779.632 1833388 1834024 1836110 1839890 1845468 1852592 1860712 1869031 
2783.489 1876726 1882953 1887130 1888966 1888497 1886123 1882511 1878589 
2787.346 1875350 1873573 1873897 1876333 1880599 1885862 1891287 1896206 
2791.204 1900132 1903072 1905327 1907366 1909632 1912369 1915774 1919924 
2795.061 1924875 1930787 1937718 1945518 1953698 1961401 1967730 1971735 
2798.919 1973027 1971868 1969200 1966409 1964880 1965511 1968632 1973830 
2802.776 1980286 1987197 1994092 2000933 2008116 2016039 2024797 2033928 
2806.634 2042485 2049257 2053469 2054919 2054326 2053211 2053289 2055961 
2810.491 2061883 2070667 2081169 2091894 2101580 2109554 2116033 2121708 
2814.348 2127546 2134079 2141459 2149175 2156485 2162724 2167636 2171570 
2818.206 2175145 2179148 2184114 2190041 2196437 2202569 2207713 2211317 
2822.063 2213342 2213977 2213746 2213077 2212426 2212022 2212066 2212615 
2825.921 2213698 2215192 2217115 2219362 2221954 2225024 2228829 2233552 
2829.778 2239280 2245706 2252212 2258012 2262372 2264985 2266211 2266941 
2833.635 2268437 2271826 2277599 2285469 2294481 2303229 2310524 2315715 
2837.493 2318801 2320354 2321247 2322226 2323761 2326207 2329853 2335141 
2841.350 2342780 2353466 2367610 2385016 2404746 2425350 2445445 2463905 
2845.208 2480701 2496591 2513026 2531578 2553152 2577723 2604157 2630375 
2849.065 2654012 2672780 2685226 2690825 2690305 2685324 2678179 2671322 
2852.923 2666809 2665869 2668618 2674181 2680963 2687246 2691780 2694043 
2856.780 2694517 2694111 2693917 2694439 2695581 2696481 2696045 2693449 
2860.637 2688499 2681958 2675232 2669956 2667547 2668927 2674446 2684021 
2864.495 2697497 2714724 2735802 2760744 2789381 2821307 2855828 2892091 
2868.352 2929291 2966904 3004676 3042482 3080497 3118896 3158022 3198413 
2872.210 3240832 3286153 3335131 3388047 3444597 3503687 3563806 3623295 
2876.067 3680751 3735228 3786238 3833511 3876745 3915362 3948590 3975563 
2879.925 3995822 4009409 4016871 4019032 4016697 4010191 3999520 3984271 
2883.782 3964088 3939148 3910112 3878294 3845180 3812272 3780505 3750313 
2887.639 3721705 3694433 3668362 3643626 3620592 3599763 3581619 3566439 
2891.497 3554291 3544968 3538176 3533540 3530748 3529502 3529666 3531151 
2895.354 3534176 3538840 3545381 3553711 3563575 3574154 3584648 3594039 
2899.212 3601713 3607454 3611613 3614923 3618225 3622170 3627127 3632955 
2903.069 3639439 3646203 3653127 3660143 3667409 3674806 3682187 3689063 
2906.927 3694902 3699334 3702397 3704718 3707258 3711396 3718355 3729041 
2910.784 3743795 3762399 3784093 3807877 3832696 3857728 3882533 3907112 
2914.641 3931923 3957672 3985021 4014298 4045457 4077672 4109854 4140766 
2918.499 4169548 4195855 4220247 4243880 4268235 4294535 4323421 4354649 
2922.356 4387315 4420102 4451944 4482219 4511255 4539975 4570007 4602819 
2926.214 4639571 4680692 4726055 4774894 4826297 4879590 4934517 4991423 
2930.071 5051402 5115725 5185793 5262644 5346951 5438670 5537569 5643309 
2933.928 5755832 5875545 6003368 6140544 6288200 6447001 6616945 6797214 
2937.786 6986329 7182445 7383700 7588240 7794289 7999831 8202652 8399883 
2941.643 8588255 8764297 8924606 9066094 9186348 9283486 9356266 9403683 
2945.501 9425286 9420913 9391303 9337845 9262807 9169123 9059939 8938210 
2949.358 8806345 8666071 8518627 8365001 8206468 8044792 7882362 7721826 
2953.216 7565892 7416693 7275702 7143421 7019820 6904451 6796905 6696909 
2957.073 6604466 6519444 6441674 6370447 6304549 6242411 6182208 6122395 
2960.930 6061840 6000031 5937244 5874448 5813049 5754545 5700402 5651692 
2964.788 5608915 5571987 5540402 5513226 5489584 5468575 5449523 5431995 
2968.645 5415623 5400140 5385423 5371411 5358412 5346948 5337965 5332468 
2972.503 5331445 5335328 5344098 5357187 5373835 5393325 5415559 5440991 
2976.360 5470532 5505180 5545750 5592340 5644454 5701309 5762283 5827300 
2980.218 5897030 5972786 6056342 6148885 6251321 6363647 6485747 6617362 
2984.075 6758878 6911189 7075874 7254215 7446982 7653580 7872084 8099346 
2987.932 8331582 8564836 8795695 9021173 9238923 9446659 9642325 9823485 
2991.790 9987864 10133413 10258530 10362355 10444485 10505026 10544147 
2995.165 10562031 10558929 10535289 10492034 10430642 10353149 10261964 
2998.540 10159408 10047284 9926742 9798159 9661572 9516787 9364019 9203827 
3002.398 9037343 8865847 8690663 8512888 8333423 8152912 7972181 7792090 
3006.255 7613766 7438183 7266164 7097811 6932799 6770275 6609422 6449757 
3010.113 6291513 6135504 5983005 5835165 5692731 5555699 5423543 5295462 
3013.970 5170874 5049678 4932361 4819603 4712054 4609777 4512235 4418302 
3017.827 4326908 4237171 4148995 4062740 3979237 3899038 3822389 3748890 
3021.685 3677871 3608793 3541633 3477098 3416328 3360419 3309910 3264327 
3025.542 3222084 3180817 3138359 3093088 3044841 2994606 2944630 2897365 
3029.400 2855038 2818791 2788861 2764311 2743860 2725979 2709562 2693973 
3033.257 2678985 2664753 2651370 2638742 2626574 2614331 2601397 2587220 
3037.115 2571561 2554494 2536603 2518677 2501909 2487312 2475698 2467387 
3040.972 2462061 2458735 2455931 2452018 2445679 2436155 2423589 2408933 
3044.829 2393885 2380302 2369850 2363372 2360971 2361746 2364381 2367294 
3048.687 2369427 2370172 2369806 2368875 2368333 2368666 2369854 2371268 
3052.544 2371736 2369948 2364915 2356410 2344966 2332079 2319569 2309281 
3056.402 2302547 2299859 2300799 2304152 2308474 2312416 2315101 2316312 
3060.259 2316502 2316206 2316066 2316265 2316589 2316510 2315542 2313521 
3064.116 2310724 2307967 2306378 2306936 2310163 2315891 2323204 2330612 
3067.974 2336450 2339187 2337941 2332502 2323646 2312749 2301735 2292510 
3071.831 2286523 2284449 2285978 2289723 2293678 2295716 2294252 2288548 
3075.689 2279236 2267889 2256633 2247354 2241422 2239046 2239687 2242123 
3079.546 2245369 2248564 2251677 2254905 2258788 2263659 2269653 2276471 
3083.404 2283820 2291505 2299275 2306747 2313347 2317942 2319178 2315763 
3087.261 2307103 2293798 2277702 2261831 2249382 2242727 2242796 2248415 
3091.118 2256900 2264700 2268731 2267272 2260726 2251072 2241520 2234927 
3094.976 2233294 2236728 2243773 2251915 2258536 2261747 2261087 2257263 
3098.833 2251998 2247096 2243853 2242771 2243402 2244764 2246043 2246863 
3102.691 2247672 2249516 2253640 2260757 2270784 2282468 2293864 2302657 
3106.548 2306972 2305874 2299592 2289454 2277470 2265682 2255862 2248940 
3110.406 2245224 2244440 2246150 2249843 2255308 2262421 2271037 2280779 
3114.263 2290787 2299927 2306802 2310205 2309543 2304985 2297620 2289067 
3118.120 2281163 2275305 2272116 2271258 2271809 2272465 2272448 2271695 
3121.978 2271015 2271755 2275178 2281928 2291680 2303099 2314396 2323812 
3125.835 2330449 2334339 2336512 2338463 2341692 2346956 2354458 2363566 
3129.693 2373353 2382658 2390477 2395850 2398088 2396683 2391517 2383117 
3133.550 2372707 2362020 2353085 2347466 2345777 2347289 2350357 2352706 
3137.407 2352549 2348998 2342630 2334961 2328103 2323529 2321939 2322783 
3141.265 2324876 2326672 2327230 2326179 2323941 2321267 2319048 2317899 
3145.122 2318223 2320189 2324054 2329851 2337621 2346944 2356874 2366086 
3148.980 2373232 2377259 2378005 2376075 2372859 2369695 2367762 2367381 
3152.837 2368126 2369136 2369541 2368797 2367150 2365299 2364320 2365277 
3156.695 2368926 2375589 2385021 2396448 2408785 2420551 2430264 2436593 
3160.552 2438851 2437166 2432558 2426765 2421718 2418898 2418894 2421162 
3164.409 2424305 2426723 2427093 2425093 2421362 2417342 2414720 2414788 
3168.267 2418275 2424990 2434358 2445429 2457444 2469796 2482153 2494117 
3172.124 2505338 2515353 2523894 2530660 2535876 2539614 2542196 2543718 
3175.982 2544094 2543022 2540331 2535945 2530056 2523190 2515914 2508754 
3179.839 2502194 2496565 2492318 2490002 2490477 2494558 2503010 2516030 
3183.697 2533115 2552927 2573607 2592823 2608467 2618812 2622909 2620820 
3187.554 2613511 2602799 2591039 2580548 2573327 2570399 2571854 2576400 
3191.411 2582229 2587199 2589626 2588638 2584545 2578553 2572322 2567491 
3195.269 2565291 2566314 2570563 2577619 2586954 2597933 2609910 2622096 
3199.126 2633595 2643435 2650944 2655829 2658445 2659721 2660965 2663215 
3202.984 2667110 2672370 2677944 2682341 2684293 2683008 2678712 2672585 
3206.841 2666521 2662513 2662047 2665708 2673044 2682616 2692581 2701303 
3210.698 2707684 2711541 2713554 2714916 2716767 2719867 2724357 2729718 
3214.556 2735405 2740921 2746298 2752012 2758871 2767340 2777323 2787919 
3218.413 2797758 2805326 2809598 2810367 2808393 2804785 2800752 2796782 
3222.271 2792833 2788197 2782198 2774726 2766599 2759396 2755133 2755469 
3226.128 2761298 2772222 2787000 2803594 2820151 2835034 2847194 2855984 
3229.986 2861227 2862899 2861382 2857438 2852477 2848159 2846169 2847566 
3233.843 2852342 2859351 2866482 2871482 2872764 2869788 2863540 2855746 
3237.700 2848497 2843229 2840521 2839881 2840424 2841198 2841938 2843128 
3241.558 2845699 2850671 2858594 2869195 2881554 2894116 2905365 2913853 
3245.415 2918787 2919648 2916569 2910094 2901289 2891670 2883146 2877576 
3249.273 2876344 2879914 2887606 2897642 2907760 2915801 2920590 2922079 
3253.130 2921489 2920590 2921441 2925221 2932326 2942209 2953704 2965468 
3256.988 2976397 2985722 2993176 2998801 3003006 3006461 3010238 3015472 
3260.845 3023280 3034346 3048364 3064090 3079423 3091778 3098999 3099689 
3264.702 3093989 3083146 3069371 3055096 3042520 3033039 3027404 3025660 
3268.560 3027567 3032472 3039571 3047756 3055612 3061699 3064653 3063687 
3272.417 3058832 3050962 3041827 3033554 3028217 3027421 3031923 3041484 
3276.275 3054873 3069899 3083898 3094051 3098114 3094939 3085002 3070267 
3280.132 3054095 3040220 3031960 3031195 3038117 3051273 3068369 3086828 
3283.990 3104683 3120654 3133916 3143691 3148904 3148153 3140466 3125718 
3287.847 3105501 3083134 3062989 3049187 3044412 3048778 3060051 3074136 
3291.704 3086855 3095110 3098037 3096931 3094629 3094091 3097476 3105204 
3295.562 3116203 3128323 3139330 3147482 3151996 3152848 3150628 3146005 
3299.419 3139593 3131928 3123601 3115373 3108271 3103293 3101319 3102846 
3303.277 3107649 3115094 3123906 3132576 3139558 3143599 3144113 3141223 
3307.134 3136070 3130569 3126948 3127281 3132936 3143893 3158867 3175452 
3310.991 3190898 3202637 3209050 3209494 3204440 3194882 3182371 3168386 
3314.849 3154533 3142485 3134004 3130609 3133456 3142583 3156825 3173804 
3318.706 3190396 3203475 3210609 3210772 3204466 3193321 3179732 3166017 
3322.564 3154201 3145589 3140936 3140424 3143851 3150601 3159684 3169535 
3326.421 3178546 3185046 3188066 3187378 3183883 3179158 3175255 3173877 
3330.279 3176050 3181666 3189652 3198182 3205270 3209246 3209269 3205375 
3334.136 3198689 3190850 3183766 3179019 3177467 3178977 3182545 3186599 
3337.993 3189603 3190494 3189247 3186744 3184772 3185209 3189640 3198679 
3341.851 3211932 3227974 3244759 3260021 3271879 3278867 3280405 3276423 
3345.708 3267655 3255133 3240362 3224932 3210440 3198099 3188670 3182381 
3349.566 3178926 3177625 3177799 3178812 3180246 3181770 3183182 3184127 
3353.423 3184324 3183544 3181764 3179313 3176907 3175170 3174592 3175071 
3357.281 3176152 3176859 3176428 3174575 3171948 3169833 3169992 3173861 
3361.138 3181964 3193542 3206582 3218362 3226273 3228479 3224611 3215684 
3364.995 3203734 3191120 3179792 3170719 3163866 3158379 3153153 3147379 
3368.853 3140976 3134457 3128985 3125714 3125454 3128377 3133949 3141029 
3372.710 3148237 3154065 3157257 3156852 3152630 3144786 3134415 3123162 
3376.568 3113346 3107242 3106816 3112873 3125003 3141277 3158736 3174016 
3380.425 3184221 3187514 3183652 3173824 3160307 3145768 3132681 3122671 
3384.282 3116542 3114134 3114497 3116213 3117928 3118372 3116936 3113688 
3388.140 3109385 3105287 3102667 3102214 3103733 3105918 3106704 3103944 
3391.997 3096214 3083500 3067214 3049880 3034358 3022701 3015495 3011848 
3395.855 3009910 3007604 3003781 2998728 2994019 2991904 2994385 3002281 
3399.712 3014938 3030188 3045189 3057182 3064312 3065851 3062338 3054864 
3403.570 3045074 3034282 3023601 3013770 3005249 2998235 2992890 2989167 
3407.427 2987056 2986649 2988097 2991643 2997461 3005389 3014624 3023677 
3411.284 3030484 3032897 3029402 3019525 3004348 2986111 2967928 2952790 
3415.142 2943027 2939679 2942703 2951074 2963467 2978245 2994101 3009665 
3418.999 3023580 3034239 3040126 3040091 3033949 3022472 3007614 2991956 
3422.857 2978088 2967861 2961938 2959601 2959289 2959045 2957331 2953382 
3426.714 2947382 2940223 2933281 2927693 2924305 2923511 2925220 2929143 
3430.572 2934841 2941665 2948920 2955737 2961360 2965130 2966915 2967146 
3434.429 2966774 2966854 2968419 2971786 2976639 2981924 2986374 2988908 
3438.286 2988944 2986561 2982400 2977122 2971167 2964374 2956207 2946072 
3442.144 2933866 2920214 2906793 2895625 2888806 2887361 2891000 2897876 
3446.001 2905021 2909188 2907755 2899486 2885078 2866695 2847715 2831621 
3449.859 2821278 2818143 2822416 2832936 2847912 2865413 2883852 2902288 
3453.716 2920252 2937487 2953656 2967951 2979261 2986346 2988258 2984761 
3457.573 2976436 2964663 2951076 2937240 2924162 2912274 2901447 2891446 
3461.431 2882345 2874656 2869222 2867001 2868676 2874257 2883374 2895313 
3465.288 2909469 2925503 2943557 2963540 2985171 3007397 3028495 3046353 
3469.146 3059467 3067143 3070115 3070201 3069877 3071172 3075273 3082076 
3473.003 3090479 3099048 3106845 3113598 3120177 3127734 3137257 3148935 
3476.861 3161934 3174526 3184780 3191154 3193162 3191250 3187076 3182407 
3480.718 3179079 3178247 3180372 3185219 3192354 3201306 3211841 3224065 
3484.575 3238286 3254542 3272716 3291947 3310997 3328176 3341948 3351295 
3488.433 3356237 3357847 3358240 3360040 3365801 3377169 3394527 3416636 
3492.290 3441239 3465309 3486179 3501929 3512103 3517529 3520065 3522127 
3496.148 3525991 3533153 3544196 3558623 3575297 3592606 3609092 3623707 
3500.005 3636083 3646301 3654810 3661814 3667239 3670419 3670318 3666066 
3503.863 3657331 3644611 3629544 3614380 3601484 3592500 3587879 3586599 
3507.720 3586676 3585717 3581783 3573908 3562792 3550116 3538354 3529780 
3511.577 3525871 3526700 3531019 3536186 3539137 3536775 3526916 3508631 
3515.435 3482859 3451961 3419453 3389157 3364341 3346764 3336249 3330940 
3519.292 3327499 3322258 3312105 3295454 3272365 3244600 3214735 3185619 
3523.150 3159538 3137746 3120478 3106914 3095897 3086094 3076277 3065671 
3527.007 3053979 3041115 3027593 3014009 3001293 2990184 2981339 2974841 
3530.865 2970119 2966098 2961266 2954059 2943520 2929460 2912820 2895234 
3534.722 2879065 2866390 2858642 2856107 2857929 2862247 2866983 2870062 
3538.579 2870166 2866901 2860518 2851767 2841544 2830686 2819837 2809549 
3542.437 2800572 2793649 2789607 2788790 2791071 2795242 2799486 2801470 
3546.294 2799110 2791103 2777445 2759333 2739220 2720049 2704729 2695473 
3550.152 2693410 2698109 2707875 2719787 2730494 2736687 2736232 2728466 
3554.009 2714886 2698524 2683369 2673317 2670826 2676452 2688494 2703706 
3557.866 2718097 2728208 2731794 2728108 2718022 2703037 2685455 2667367 
3561.724 2650909 2637954 2630074 2628233 2632372 2641292 2652630 2663383 
3565.581 2670666 2672553 2668587 2659569 2647400 2633942 2620613 2607763 
3569.439 2595452 2583571 2572758 2564120 2559330 2559555 2564978 2574387 
3573.296 2585363 2594971 2600969 2601982 2598334 2591095 2581951 2572359 
3577.154 2563320 2555399 2549199 2545204 2544125 2546155 2550742 2556332 
3581.011 2560644 2561387 2557159 2548249 2536646 2525451 2517682 2515124 
3584.868 2517623 2522935 2527670 2528191 2522069 2508795 2489709 2467710 
3588.726 2446408 2429282 2418858 2416417 2421791 2433368 2448271 2462794 
3592.583 2473210 2476384 2470789 2456616 2435981 2412065 2388086 2366378 
3596.441 2347752 2331590 2316672 2301873 2287336 2274238 2264705 2260761 
3600.298 2263484 2272370 2285422 2299848 2312898 2322511 2327923 2329228 
3604.156 2327213 2322724 2316440 2308663 2299927 2290740 2281939 2274325 
3608.013 2268238 2263531 2259418 2254843 2249186 2242437 2235710 2230802 
3611.870 2229752 2233838 2243461 2257362 2273369 2288605 2300528 2307399 
3615.728 2308885 2305789 2299847 2293343 2288358 2286437 2288421 2294347 
3619.585 2303597 2314918 2327133 2338925 2349479 2358343 2365614 2371851 
3623.443 2378053 2385183 2394181 2405560 2419345 2434844 2450884 2466027 
3627.300 2478807 2488221 2493815 2495942 2495407 2493319 2490962 2489191 
3631.157 2488947 2490965 2496051 2505015 2518409 2536347 2558109 2582119 
3635.015 2606152 2627892 2645549 2658188 2666188 2670439 2672509 2673477 
3638.872 2673904 2673707 2672675 2670625 2668034 2665848 2665158 2666762 
3642.730 2670896 2676921 2683906 2690917 2697672 2704441 2712012 2721034 
3646.587 2731510 2742395 2751980 2758480 2760788 2758902 2754222 2749074 
3650.445 2745782 2745812 2749584 2755968 2763153 2769195 2772640 2772883 
3654.302 2770218 2765458 2759612 2753505 2747940 2743495 2740565 2739472 
3658.159 2740141 2742093 2744366 2745394 2743905 2738887 2730560 2720011 
3662.017 2709582 2701694 2698593 2701257 2709354 2720937 2733054 2742507 
3665.874 2746426 2742969 2731514 2712752 2688315 2660514 2631957 2605176 
3669.732 2582632 2566090 2556837 2555047 2559981 2569763 2581811 2593195 
3673.589 2601106 2603428 2599116 2588282 2572162 2552314 2530433 2507783 
3677.447 2484932 2462016 2439171 2416684 2395517 2376847 2362072 2352122 
3681.304 2347244 2346425 2348007 2349739 2349588 2346081 2338746 2327940 
3685.161 2314817 2300687 2286691 2273424 2260798 2248146 2234574 2219240 
3689.019 2201921 2183075 2164090 2146911 2133646 2125956 2124771 2129561 
3692.876 2138877 2150343 2161353 2169649 2173953 2173964 2170313 2164290 
3696.734 2157385 2150925 2145879 2142645 2141397 2141626 2142874 2144247 
3700.591 2144948 2144097 2141332 2136589 2130503 2124042 2118289 2114237 
3704.448 2112286 2112325 2113719 2115624 2117106 2117618 2116811 2114522 
3708.306 2110789 2105722 2099434 2092361 2085285 2079279 2075452 2074812 
3712.163 2077586 2083189 2090376 2097241 2102126 2103795 2101836 2096771 
3716.021 2089772 2082260 2075656 2070985 2068945 2069875 2073713 2080136 
3719.878 2088470 2097569 2106159 2112515 2115412 2113875 2108075 2098963 
3723.736 2088674 2079833 2075089 2076570 2085329 2100919 2121518 2143914 
3727.593 2164454 2179481 2186261 2183463 2171723 2153255 2131641 2110901 
3731.450 2094742 2085756 2084999 2091708 2104044 2119281 2134622 2147813 
3735.308 2157232 2162177 2162669 2159109 2152298 2143039 2132247 2120963 
3739.165 2110493 2102104 2097442 2097926 2104575 2117644 2136369 2158934 
3743.023 2182764 2204806 2222393 2233709 2238399 2237279 2232055 2224654 
3746.880 2216408 2207896 2198766 2188249 2175728 2161254 2145657 2130725 
3750.738 2118334 2110082 2106840 2108182 2112848 2118977 2124604 2128254 
3754.595 2129246 2127742 2124675 2121682 2120618 2123324 2131139 2144595 
3758.452 2163178 2185227 2208218 2228971 2244641 2252938 2252911 2244822 
3762.310 2230273 2211490 2191060 2171223 2153758 2139601 2128854 2121202 
3766.167 2115886 2112200 2109600 2107873 2107346 2108501 2111743 2117213 
3770.025 2124532 2132574 2139948 2145032 2146877 2145239 2140814 2135160 
3773.882 2130024 2126965 2126958 2130017 2135510 2142197 2148847 2154156 
3777.740 2157322 2157902 2155793 2151298 2145368 2139246 2134291 2131923 
3781.597 2132868 2136999 2143442 2150623 2156956 2161359 2163858 2165341 
3785.454 2167497 2171790 2179223 2189748 2202464 2216024 2229130 2241120 
3789.312 2251765 2261090 2268863 2274054 2275197 2270443 2258490 2239224 
3793.169 2214031 2185500 2157093 2131983 2112448 2099368 2092413 2090296 
3797.027 2091326 2093911 2097095 2100242 2103211 2106130 2109266 2113118 
3800.884 2118054 2124332 2131899 2140133 2148050 2154093 2157022 2155826 
3804.741 2150289 2141033 2129465 2117446 2106907 2099458 2096121 2097179 
3808.599 2102134 2110197 2119925 2129923 2138864 2145850 2150547 2153391 
3812.456 2155404 2157762 2161632 2167615 2175611 2184786 2193913 2201647 
3816.314 2206896 2208957 2207634 2203016 2195641 2186380 2176566 2168006 
3820.171 2162573 2162000 2167083 2177157 2190096 2202731 2211660 2214430 
3824.029 2210253 2200324 2187555 2175361 2166838 2163630 2165727 2171575 
3827.886 2179161 2186503 2192537 2197300 2201434 2205646 2210181 2214485 
3831.743 2217363 2217384 2213391 2204983 2192685 2177825 2162138 2147440 
3835.601 2135057 2125722 2119475 2115673 2113363 2111504 2109245 2106199 
3839.458 2102457 2098483 2094894 2092154 2090419 2089612 2089371 2089440 
3843.316 2089831 2090700 2092522 2095442 2099317 2103528 2107186 2109386 
3847.173 2109831 2108805 2107300 2106596 2107841 2111464 2117089 2123646 
3851.031 2129689 2133897 2135444 2134057 2130134 2124492 2118124 2112181 
3854.888 2107919 2106436 2108808 2115490 2126184 2139653 2153954 2166654 
3858.745 2175784 2180019 2179462 2175019 2168371 2161139 2154475 2148885 
3862.603 2144591 2141618 2140265 2141115 2144650 2150741 2158326 2165667 
3866.460 2170712 2171956 2169086 2163450 2157618 2154537 2156558 2164386 
3870.318 2176917 2191519 2205021 2214589 2218687 2217090 2210657 2200855 
3874.175 2188983 2176081 2163073 2150648 2139743 2131411 2126551 2125514 
3878.032 2127809 2132068 2136524 2139419 2140024 2138480 2136193 2135026 
3881.890 2136568 2141497 2149554 2159204 2168635 2176126 2180816 2182508 
3885.747 2182075 2180284 2177881 2174890 2170828 2164990 2156698 2145925 
3889.605 2133453 2120744 2109521 2101572 2098099 2099638 2106062 2116653 
3893.462 2130448 2146220 2162665 2178369 2191674 2201085 2205059 2202807 
3897.320 2194342 2180759 2164270 2147674 2133836 2125033 2122352 2125428 
3901.177 2132732 2141819 2150254 2155901 2157766 2155740 2150753 2144193 
3905.034 2137671 2132484 2129536 2128973 2130508 2133458 2137026 2140502 
3908.892 2143586 2146251 2148982 2152356 2157044 2163268 2170821 2179031 
3912.749 2186837 2193253 2197555 2199560 2199792 2199090 2198520 2198830 
3916.607 2200468 2203184 2206467 2209566 2211929 2213280 2213644 2213074 
3920.464 2211649 2209210 2205322 2199578 2191924 2182833 2173529 2165923 
3924.322 2162305 2164493 2173386 2188303 2207072 2226072 2241282 2249376 
3928.179 2248531 2239271 2224287 2207730 2194059 2186506 2186114 2191330 
3932.036 2198580 2203481 2202260 2193237 2177321 2157916 2139606 2127022 
3935.894 2123242 2129049 2143058 2162053 2182415 2201013 2215904 2226594 
3939.751 2233624 2237852 2240031 2240173 2237946 2232516 2223261 2210113 
3943.609 2193522 2174878 2155807 2138296 2124143 2114727 2110908 2112808 
3947.466 2119805 2130672 2143728 2157159 2169507 2179739 2187626 2193594 
3951.323 2198410 2203015 2208099 2213807 2219835 2225534 2230052 2232594 
3955.181 2232707 2230204 2225297 2218490 2210553 2202389 2195099 2189682 
3959.038 2187052 2187890 2192435 2200384 2210967 2222989 2234975 2245368 
3962.896 2252891 2256677 2256380 2252476 2246095 2238861 2232811 2229608 
3966.753 2230585 2236076 2245497 2257238 2269410 2279852 2286900 2289563 
3970.611 2287775 2281987 2273197 2262432 2250746 2239030 2228206 2219207 
3974.468 2213114 2210848 2213064 2219657 2229948 2242325 2254666 2264927 
3978.325 2271545 2273810 2272323 2268643 2264950 2263528 2266007 2273031 
3982.183 2283988 2297314 2311140 2323539 2333359 2340279 2344751 2347591 
3986.040 2349455 2350180 2349126 2344924 2336368 2322789 2304653 2283596 
3989.898 2262107 2242758 2227734 2218171 2214139 2214661 2218653 2225059 
3993.755 2233383 2243760 2256567 2272101 2290202 2309986 2329817 2347682 
3997.613 2361457 2369316 2370219 2363991 2351502 2334632 2316000 
##END=
