##TITLE=Tecor_PLA+_White_Filament_r2_ATR-Corrected
##JCAMP-DX=5.01  $$ Nicolet v. 1
##DATATYPE=INFRARED SPECTRUM
##ORIGIN=Curtin University
##OWNER=Nicolet
##LONGDATE=2024/07/19
##TIME=08:28:52
##SPECTROMETER/DATA SYSTEM=Nicolet iS50
##DATA PROCESSING=
Ratio against background
%Transmittance->Absorbance
ATR Correction
Truncated
ElementMultiply or ElementDivide
##COMMENTS=
Number of sample scans: 32
Collection length: 47.27 sec
Sample gain: 1.0
Background collected on: Fri Jul 19 08:27:33 2024 (GMT+08:00);
Number of background scans: 32
Background gain: 1.0
Sample spacing:  1.000
Number of scan points: 16672
Resolution points: 8192
Number of FFT points: 65536
Apodization: N-B strong;
Phase correction: Mertz;
Laser frequency: 15798.3 cm-1
Number of rejected sample scans: 0
Number of rejected background scans: 0
Bench serial number: AUP1200105;
##RESOLUTION=4.000
##XUNITS=1/CM
##YUNITS=ABSORBANCE
##FIRSTX=400.163452
##LASTX=4000.187744
##FIRSTY=0.063403
##MAXX=4000.187744
##MINX=400.163452
##MAXY=1.123765
##MINY=-0.022471
##XFACTOR=1.000000
##YFACTOR=1.000000E-008
##NPOINTS=7468
##DELTAX=0.482125
##ZPD=8192
##XYDATA=(X++(Y..Y))
400.163 6340279 6212926 6092053 5980130 5879690 5794767 5728173 5678968 
404.020 5641214 5604079 5554259 5479879 5374796 5241129 5089582 4936391 
407.877 4798651 4689138 4612788 4565717 4537245 4513525 4482297 4436182 
411.734 4374386 4301676 4225889 4154680 4093070 4042037 3999036 3959064 
415.591 3916604 3867174 3808484 3740816 3666764 3590395 3516300 3448448 
419.448 3389495 3340323 3300081 3266535 3236698 3207275 3175384 3138795 
423.305 3096463 3048568 2996771 2943868 2893463 2849043 2813306 2787281 
427.162 2770359 2760452 2755021 2751935 2750239 2750096 2752344 2757425 
431.019 2764724 2772352 2777650 2778284 2773424 2764016 2752631 2742272 
434.876 2735174 2731710 2730235 2727753 2721235 2708765 2690363 2667775 
438.733 2643762 2620930 2600957 2584211 2570061 2557272 2544631 2531132 
442.590 2516117 2499247 2480645 2461020 2441967 2425678 2414520 2410020 
446.447 2412101 2418659 2425971 2429893 2427443 2417914 2403410 2387922 
450.304 2375925 2370539 2372400 2379569 2388472 2395388 2397849 2395125 
454.161 2388009 2377802 2365428 2350996 2334124 2314636 2293373 2272305 
458.017 2254023 2240580 2232409 2227862 2223603 2215723 2201313 2179475 
461.874 2151776 2121666 2093406 2070598 2056130 2050937 2054553 2065326 
465.731 2080917 2098442 2114768 2126755 2131824 2128453 2116729 2098340 
469.588 2076183 2053421 2032574 2014701 1999360 1984978 1969767 1952511 
473.445 1933115 1912506 1892313 1874260 1859839 1850108 1845867 1847503 
477.302 1854962 1867286 1882250 1896258 1904833 1903552 1889441 1862003 
481.159 1823832 1780128 1737538 1702409 1679228 1669524 1671791 1682087 
485.016 1695236 1706078 1710643 1706689 1693923 1673667 1648442 1621284 
488.873 1595244 1572907 1556195 1546284 1543787 1548888 1561547 1581400 
492.730 1607650 1638722 1672116 1704312 1731774 1751028 1759723 1757107 
496.587 1744222 1723614 1698672 1672912 1649406 1630402 1617334 1610829 
500.444 1610822 1616491 1626292 1637954 1648841 1656408 1658872 1655698 
504.301 1647778 1637147 1626405 1617896 1613162 1612559 1615397 1620260 
508.158 1625487 1629552 1631308 1630070 1625713 1618631 1609868 1600925 
512.015 1593578 1589398 1589227 1592778 1598636 1604535 1608138 1607751 
515.871 1602980 1594773 1585125 1576314 1570157 1567391 1567596 1569378 
519.728 1570948 1570604 1567170 1560137 1549672 1536403 1521358 1505724 
523.585 1490738 1477443 1466503 1457786 1450840 1444530 1437608 1429089 
527.442 1418713 1407065 1395430 1385448 1378627 1375875 1377316 1382194 
531.299 1389072 1396045 1401024 1402061 1397691 1387275 1371303 1351484 
535.156 1330558 1311690 1297712 1290303 1289486 1293587 1299813 1305057 
539.013 1306914 1304320 1297747 1288837 1279849 1272860 1269418 1270204 
542.870 1275247 1283990 1295480 1308375 1321026 1331507 1338014 1339252 
546.727 1334906 1325832 1313929 1301524 1290735 1282709 1277482 1274032 
550.584 1270997 1267285 1262671 1257915 1254474 1253879 1257162 1264416 
554.441 1274769 1286686 1298446 1308514 1316144 1321190 1324186 1326105 
558.298 1328215 1331744 1337662 1346382 1357615 1370270 1382701 1393068 
562.155 1399875 1402360 1400735 1396055 1389809 1383421 1377953 1373935 
566.012 1371657 1371432 1373938 1380119 1390942 1406752 1426886 1449437 
569.869 1471640 1490491 1503639 1510019 1510155 1505803 1499441 1493417 
573.725 1489456 1488399 1490342 1494922 1501629 1509961 1519435 1529446 
577.582 1539262 1548094 1555337 1560781 1564833 1568315 1572319 1577770 
581.439 1585130 1594352 1604940 1616210 1627571 1638578 1648953 1658438 
585.296 1666701 1673436 1678562 1682399 1685906 1690444 1697464 1707912 
589.153 1721845 1738302 1755534 1771600 1785023 1795203 1802506 1807879 
593.010 1812310 1816239 1819415 1821030 1820265 1816813 1811263 1805052 
596.867 1800089 1798094 1800154 1806442 1816353 1828816 1842747 1857200 
600.724 1871410 1884591 1895799 1903923 1908041 1907803 1903894 1898122 
604.581 1893130 1891741 1896184 1907387 1924832 1946760 1970810 1994778 
608.438 2017154 2037357 2055585 2072374 2088286 2103611 2118462 2132918 
612.295 2147329 2162320 2178811 2197640 2219364 2244024 2271184 2300085 
616.152 2329904 2359984 2389854 2419168 2447595 2474665 2499848 2522651 
620.009 2542897 2560882 2577395 2593583 2610618 2629386 2650224 2672799 
623.866 2696224 2719344 2741029 2760494 2777520 2792452 2806152 2819732 
627.723 2834324 2850791 2869547 2890501 2913151 2936711 2960461 2983875 
631.579 3006788 3029303 3051626 3073774 3095474 3116005 3134490 3150107 
635.436 3162540 3172218 3180355 3188762 3199404 3213862 3232932 3256331 
639.293 3282820 3310447 3337136 3361103 3381386 3397933 3411609 3423827 
643.150 3436128 3449690 3464970 3481612 3498615 3514673 3528720 3540343 
647.007 3550042 3559102 3569258 3582076 3598423 3618147 3640072 3662398 
650.864 3683309 3701539 3716815 3729841 3742032 3754922 3769661 3786628 
654.721 3805406 3825063 3844593 3863308 3881133 3898531 3916299 3935182 
658.578 3955583 3977410 4000089 4022813 4044764 4065287 4084077 4101073 
662.435 4116461 4130568 4143847 4156820 4170099 4184348 4200150 4217857 
666.292 4237563 4259012 4281693 4304975 4328327 4351378 4373955 4395988 
670.149 4417351 4437752 4456743 4473825 4488700 4501432 4512603 4523197 
674.006 4534464 4547514 4563133 4581479 4602175 4624324 4646797 4668388 
677.863 4688078 4705094 4719090 4730223 4739107 4746927 4755234 4765710 
681.720 4779777 4798199 4820816 4846492 4873388 4899376 4922652 4942158 
685.577 4957837 4970516 4981602 4992604 5004791 5018854 5035016 5053069 
689.433 5072656 5093365 5114830 5136654 5158425 5179582 5199614 5218050 
693.290 5234701 5249698 5263526 5276905 5290672 5305565 5322097 5340443 
697.147 5360422 5381462 5402714 5423091 5441529 5457166 5469551 5478785 
701.004 5485479 5490571 5495024 5499468 5503994 5508062 5510729 5510945 
704.861 5507935 5501408 5491621 5479170 5464739 5448757 5431349 5412263 
708.718 5391150 5367725 5341953 5313954 5283944 5251967 5217813 5180964 
712.575 5140824 5096885 5049021 4997502 4942932 4885923 4826842 4765550 
716.432 4701416 4633445 4560696 4482494 4398770 4310000 4217131 4121280 
720.289 4023547 3924854 3825986 3727724 3631000 3537001 3447178 3363052 
724.146 3286116 3217580 3158338 3108916 3069600 3040486 3021605 3012848 
728.003 3014022 3024803 3044832 3073805 3111696 3158838 3216014 3284223 
731.860 3364446 3457196 3562251 3678437 3803743 3935626 4071440 4208808 
735.717 4345878 4481344 4614312 4744002 4869652 4990386 5105440 5214302 
739.574 5317007 5414182 5506984 5596823 5685068 5772678 5860079 5947130 
743.431 6033355 6118201 6201344 6282966 6363849 6445338 6529173 6617121 
747.287 6710634 6810558 6916886 7028790 7144832 7263224 7382215 7500272 
751.144 7616118 7728555 7836175 7937104 8028970 8109031 8174644 8223657 
755.001 8254796 8267694 8262761 8240704 8202184 8147546 8076855 7990118 
758.858 7887629 7770208 7639231 7496487 7343936 7183426 7016660 6845195 
762.715 6670677 6494938 6320063 6148175 5981230 5820753 5667741 5522685 
766.572 5385828 5257234 5136969 5024878 4920431 4822404 4728941 4637661 
770.429 4546238 4452964 4357249 4259759 4162256 4066904 3975628 3889448 
774.286 3808288 3731099 3656369 3582652 3509201 3436036 3363889 3293782 
778.143 3226569 3162517 3101170 3041429 2981875 2921179 2858446 2793419 
782.000 2726573 2658960 2591959 2527006 2465310 2407592 2354008 2304075 
785.857 2256803 2210888 2164994 2118009 2069350 2018987 1967504 1915863 
789.714 1865160 1816346 1770034 1726409 1685391 1646809 1610683 1577347 
793.571 1547415 1521576 1500281 1483385 1470023 1458689 1447575 1435025 
797.428 1420053 1402524 1383247 1363609 1345237 1329487 1317266 1308856 
801.285 1304076 1302392 1303112 1305361 1308209 1310584 1311442 1309948 
805.141 1305817 1299453 1292007 1285069 1280233 1278587 1280364 1284887 
808.998 1290823 1296684 1301277 1304077 1305244 1305392 1305272 1305404 
812.855 1305983 1306850 1307723 1308315 1308541 1308404 1308003 1307446 
816.712 1306857 1306451 1306707 1308257 1311867 1318076 1326909 1337695 
820.569 1349092 1359380 1366943 1370762 1370697 1367522 1362654 1357751 
824.426 1354259 1353155 1354894 1359466 1366610 1375915 1386888 1398890 
828.283 1411191 1422892 1433205 1441581 1447916 1452614 1456456 1460446 
832.140 1465499 1472304 1481331 1492799 1507089 1524652 1546058 1571851 
835.997 1602321 1637335 1676308 1718370 1762680 1808734 1856610 1907000 
839.854 1961017 2019842 2084396 2155052 2231525 2312947 2398014 2485162 
843.711 2572707 2658839 2741677 2819281 2889791 2951594 3003680 3045801 
847.568 3078596 3103545 3122764 3138629 3153595 3169990 3190032 3215892 
851.425 3249923 3294604 3352566 3426361 3518181 3629614 3761499 3913878 
855.282 4086130 4277085 4485178 4708436 4944538 5190684 5443671 5699913 
859.139 5955694 6207338 6451510 6685361 6906660 7113849 7306056 7483047 
862.995 7645152 7793134 7927908 8050195 8160258 8257647 8341334 8409874 
866.852 8462013 8497134 8515566 8518555 8507802 8484796 8450145 8403081 
870.709 8341630 8263048 8164754 8045146 7904254 7743775 7566766 7376873 
874.566 7177639 6971866 6761459 6547470 6330508 6111108 5890049 5668527 
878.423 5448149 5230835 5018648 4813627 4617646 4432326 4258968 4098531 
882.280 3951748 3819240 3701638 3599611 3513838 3444707 3392173 3355467 
886.137 3333096 3322960 3322713 3330081 3343200 3360690 3381576 3405031 
889.994 3430196 3456021 3481296 3504872 3525809 3543558 3557964 3569128 
893.851 3577334 3582874 3586067 3587287 3587045 3585933 3584617 3583556 
897.708 3582958 3582644 3582200 3581196 3579476 3577339 3575563 3575236 
901.565 3577500 3583203 3592749 3606020 3622543 3641614 3662524 3684652 
905.422 3707586 3730962 3754589 3778263 3801840 3825095 3847748 3869316 
909.279 3889204 3906644 3920902 3931417 3937954 3940661 3939987 3936505 
913.136 3930710 3922879 3913038 3901051 3886764 3870106 3851103 3829806 
916.993 3806221 3780246 3751804 3721055 3688595 3655552 3623416 3593657 
920.849 3567271 3544332 3523903 3504247 3483403 3459783 3432789 3402945 
924.706 3371811 3341487 3313998 3290818 3272674 3259428 3250379 3244469 
928.563 3240539 3237492 3234363 3230379 3225097 3218413 3210696 3202615 
932.420 3195074 3188849 3184438 3181868 3180796 3180679 3181049 3181709 
936.277 3182802 3184726 3187940 3192762 3199353 3207679 3217647 3229184 
940.134 3242283 3256918 3272952 3290102 3307991 3326378 3345381 3365683 
943.991 3388480 3415256 3447382 3485696 3530261 3580357 3634775 3692225 
947.848 3751744 3812857 3875608 3940230 4006926 4075614 4145932 4217404 
951.705 4289640 4362518 4436106 4510414 4585012 4658685 4729378 4794297 
955.562 4850423 4895071 4926397 4943756 4947623 4939415 4921086 4894762 
959.419 4862541 4826411 4788322 4750257 4714194 4681971 4654946 4633702 
963.276 4617869 4606068 4596230 4585945 4573029 4555893 4533818 4506873 
967.133 4475716 4441181 4403962 4364377 4322319 4277467 4229516 4178454 
970.990 4124755 4069345 4013434 3958301 3904948 3853958 3805500 3759395 
974.847 3715437 3673601 3634229 3598132 3566425 3540250 3520556 3507790 
978.703 3501770 3501755 3506560 3514881 3525564 3537850 3551437 3566534 
982.560 3583664 3603472 3626580 3653282 3683610 3717255 3753695 3792315 
986.417 3832630 3874345 3917509 3962504 4009803 4059979 4113383 4170039 
990.274 4229493 4290880 4353037 4414758 4475103 4533533 4590100 4645370 
994.131 4700186 4755498 4812034 4870176 4929957 4991126 5053420 5116712 
997.988 5181193 5247366 5315979 5387787 5463468 5543460 5627966 5717020 
1001.845 5810726 5909237 6012936 6122320 6237942 6360253 6489543 6625923 
1005.702 6769431 6920172 7078444 7244791 7419944 7604669 7799622 8005184 
1009.559 8221470 8448418 8686063 8934618 9194721 9467324 9753487 10054175 
1013.416 10369979 10701006 11046921 11407211 11781337 12168929 12569779 
1016.791 12983662 13409992 13847567 14294459 14748152 15205750 15664496 
1020.166 16122116 16576953 17027936 17474386 17915706 18351344 18780788 
1023.540 19203728 19620396 20031742 20439530 20846208 21254774 21668432 
1026.916 22090498 22524222 22972754 23439122 23926246 24436908 24973724 
1030.291 25539100 26135122 26763388 27424798 28119122 28844744 29598322 
1033.666 30374780 31167630 31969458 32772604 33569796 34354404 35120508 
1037.041 35862456 36574464 37250328 37883412 38466988 38994716 39461260 
1040.417 39862536 40195912 40460068 40654740 40780544 40838932 40831976 
1043.792 40762356 40633208 40447956 40210300 39924312 39594572 39226444 
1047.167 38826216 38400968 37958240 37505548 37049808 36596996 36151844 
1050.542 35717852 35297480 34892224 34502932 34129844 33772828 33431602 
1053.917 33105960 32795992 32502356 32226300 31969750 31735244 31525830 
1057.293 31345018 31196856 31085878 31017188 30996492 31029988 31124308 
1060.668 31286290 31522862 31840714 32245934 32743642 33337516 34029432 
1064.043 34819208 35704552 36681364 37744164 38886620 40102160 41384380 
1067.418 42727388 44125904 45575392 47072108 48613004 50195672 51817836 
1070.794 53476892 55169056 56889016 58629740 60382988 62140352 63894356 
1074.169 65639072 67370152 69083784 70775280 72437744 74061424 75634344 
1077.544 77143488 78576664 79923272 81174248 82320744 83352544 84257104 
1080.919 85019768 85625912 86063520 86325728 86412128 86328320 86084192 
1084.295 85691680 85163112 84510520 83745624 82880568 81928304 80902784 
1087.670 79818312 78688880 77527280 76344640 75150016 73950424 72750864 
1091.045 71554768 70364328 69181008 68006056 66840744 65686624 64545232 
1094.420 63417892 62305320 61207448 60123592 59052652 57993580 56945652 
1097.796 55908584 54882504 53867684 52864332 51872432 50891828 49922280 
1101.171 48963496 48015324 47077748 46151124 45236180 44334460 43448460 
1104.546 42581616 41738264 40923028 40140312 39393668 38685580 38017472 
1107.921 37390080 36804004 36260200 35760180 35305812 34898936 34540768 
1111.297 34231404 33969764 33753596 33579956 33445684 33347874 33284092 
1114.672 33252466 33251500 33279920 33336664 33420784 33531684 33669232 
1118.047 33833864 34026572 34248648 34501396 34785720 35101788 35448704 
1121.422 35824244 36224844 36645476 37079736 37519916 37957120 38381516 
1124.798 38782628 39149740 39472480 39741444 39948828 40088960 40158672 
1128.173 40157148 40085600 39946596 39743324 39478972 39156396 38777984 
1131.548 38345844 37861884 37327976 36745932 36117476 35444172 34727516 
1134.923 33969076 33170762 32335042 31465074 30564678 29638278 28690696 
1138.299 27727082 26752814 25773380 24794424 23821584 22860432 21916308 
1141.674 20994196 20098632 19233760 18403224 17610112 16857042 16146009 
1145.049 15478407 14855038 14276095 13741362 13250186 12801650 12394617 
1148.424 12027757 11699499 11408052 11151411 10927385 10733584 10567630 
1151.800 10427078 10309651 10213210 10135867 10076100 10032839 10005450 
1155.175 9993831 9998241 10019211 10057308 10112981 10186436 10277685 
1158.550 10386667 10513460 10658544 10822946 11008349 11216988 11451515 
1161.925 11714878 12010074 12340124 12708095 13117163 13570842 14073096 
1165.301 14628543 15242527 15921065 16670831 17498886 18412494 19418908 
1168.676 20525200 21738162 23064344 24509936 26080752 27781882 29617268 
1172.051 31588944 33696180 35934500 38294948 40763236 43319356 45937240 
1175.426 48584856 51224328 53812648 56302752 58645280 60791136 62694312 
1178.802 64315240 65623504 66599940 67237872 67542840 67531400 67229128 
1182.177 66668052 65884028 64914344 63795812 62563496 61249964 59884728 
1185.552 58493860 57099456 55719304 54366632 53050316 51775712 50545680 
1188.927 49361984 48226316 47140808 46107920 45129972 44208308 43342904 
1192.302 42532248 41773812 41064772 40402700 39785932 39213488 38684680 
1195.678 38198520 37753344 37346736 36975784 36637560 36329436 36049372 
1199.053 35795744 35567132 35362064 35178908 35015972 34871684 34744700 
1202.428 34633864 34537828 34454696 34381528 34314452 34248900 34180156 
1205.803 34104032 34017436 33918436 33805984 33679408 33537870 33379846 
1209.179 33203256 33005512 32784104 32537052 32263294 31962844 31636790 
1212.554 31286960 30915678 30525344 30118198 29696026 29260364 28812482 
1215.929 28353798 27886024 27411368 26932490 26452228 25973266 25497752 
1219.304 25027040 24561686 24101666 23646678 23196540 22751404 22311852 
1222.680 21878778 21453226 21036172 20628440 20230742 19843698 19467928 
1226.055 19103994 18752378 18413198 18086242 17770832 17466054 17170974 
1229.430 16884864 16607434 16338888 16079798 15830915 15592898 15366153 
1232.805 15150701 14946198 14752056 14567553 14391953 14224756 14065526 
1236.181 13914065 13770264 13634047 13505220 13383339 13267644 13157114 
1239.556 13050541 12946878 12845437 12746072 12649208 12555721 12466539 
1242.931 12382501 12303983 12230949 12163030 12099807 12041048 11986868 
1246.306 11937697 11894123 11856681 11825621 11800802 11781777 11767919 
1249.682 11758626 11753380 11751902 11754074 11759897 11769451 11782888 
1253.057 11800437 11822393 11849166 11881129 11918569 11961555 12009885 
1256.432 12063137 12120708 12182059 12246711 12314450 12385193 12458881 
1259.807 12535250 12613733 12693229 12772204 12848839 12921362 12988275 
1263.183 13048658 13102177 13148987 13189407 13223547 13250996 13270803 
1266.558 13281460 13281398 13269275 13244434 13206938 13157485 13097088 
1269.933 13026629 12946464 12856369 12755586 12643169 12518343 12380799 
1273.308 12230840 12069227 11896995 11715101 11524292 11325063 11117737 
1276.684 10902715 10680621 10452422 10219350 9982768 9744015 9504307 9264700 
1280.541 9026269 8790178 8557721 8330355 8109560 7896694 7692903 7499069 
1284.398 7315960 7144349 6985173 6839575 6708843 6594182 6496549 6416417 
1288.256 6353760 6308058 6278518 6264200 6264242 6277812 6304198 6342542 
1292.113 6391831 6450736 6517630 6590625 6667752 6747020 6826596 6904825 
1295.971 6980306 7051862 7118545 7179673 7234829 7283811 7326754 7363986 
1299.828 7395997 7423421 7446892 7467048 7484427 7499410 7512217 7522853 
1303.686 7531202 7537043 7540234 7540749 7538775 7534683 7528912 7521815 
1307.543 7513507 7503818 7492375 7478743 7462676 7444340 7424379 7403850 
1311.400 7383949 7365766 7349964 7336646 7325405 7315489 7306077 7296628 
1315.258 7286916 7277131 7267757 7259255 7252028 7246257 7241920 7238937 
1319.115 7237299 7237106 7238658 7242285 7248197 7256362 7266451 7277899 
1322.973 7290081 7302607 7315463 7329102 7344452 7362550 7384357 7410428 
1326.830 7440888 7475377 7513448 7554707 7599129 7647122 7699416 7756780 
1330.688 7819741 7888341 7962161 8040435 8122331 8207325 8295335 8386717 
1334.545 8482131 8582221 8687394 8797652 8912595 9031544 9153746 9278574 
1338.402 9405605 9534695 9666003 9799930 9937153 10078541 10225099 10377807 
1342.260 10537539 10704746 10879496 11061366 11249624 11443349 11641777 
1345.635 11844389 12051098 12262186 12478206 12699783 12927313 13160814 
1349.010 13399655 13642456 13887180 14131296 14371999 14606625 14832887 
1352.385 15048932 15253352 15444915 15622418 15784530 15929952 16057581 
1355.761 16166872 16257939 16331579 16388963 16431326 16459654 16474633 
1359.136 16476828 16467021 16446489 16417164 16381377 16341548 16299672 
1362.511 16257046 16213985 16170166 16124649 16076216 16023394 15964361 
1365.886 15896872 15818229 15725441 15615584 15486324 15336229 15165158 
1369.262 14974232 14765933 14544074 14313972 14082749 13859430 13654958 
1372.637 13481711 13352595 13279665 13272879 13338704 13479388 13692564 
1376.012 13971610 14306059 14682576 15085724 15499087 15906166 16291484 
1379.387 16641483 16945224 17194432 17383390 17508304 17566874 17557692 
1382.763 17480438 17335882 17126298 16855522 16528940 16153020 15734975 
1386.138 15282193 14801936 14301161 13786249 13262975 12736276 12210036 
1389.513 11687001 11168846 10656413 10150235 9651047 9160263 8680194 8213926 
1393.371 7765017 7336831 6932147 6552801 6199660 5872859 5572167 5297104 
1397.228 5047238 4821863 4619965 4439933 4279608 4136492 4008086 3892246 
1401.085 3787448 3692786 3607821 3532275 3465772 3407642 3356950 3312502 
1404.943 3273056 3237395 3204525 3173618 3144187 3115993 3089068 3063678 
1408.800 3040188 3018920 3000042 2983513 2969046 2956271 2944883 2934672 
1412.658 2925703 2918157 2912360 2908534 2906812 2907194 2909552 2913716 
1416.515 2919511 2926777 2935309 2944862 2955152 2965815 2976556 2987204 
1420.373 2997812 3008731 3020541 3034064 3050187 3069762 3093440 3121518 
1424.230 3153931 3190308 3230117 3272899 3318505 3367202 3419675 3476848 
1428.087 3539650 3608746 3684473 3766817 3855608 3950774 4052501 4161320 
1431.945 4278076 4403829 4539797 4687237 4847605 5022612 5214251 5424894 
1435.802 5657229 5914147 6198769 6514383 6864453 7252355 7681219 8153332 
1439.660 8669589 9229092 9828842 10463995 11128248 11814341 12514611 
1443.035 13221194 13926184 14621601 15299582 15952709 16574354 17159070 
1446.410 17702692 18202234 18655584 19061346 19418636 19727130 19987216 
1449.785 20199866 20366570 20489030 20568824 20607296 20605438 20563904 
1453.161 20483144 20363360 20204400 20005772 19766730 19486526 19164798 
1456.536 18802136 18400166 17961560 17489786 16988594 16461886 15913416 
1459.911 15346892 14766046 14174588 13576140 12974156 12371927 11772758 
1463.286 11180139 10597964 10030416 9481756 8955704 8454968 7980967 7533959 
1467.144 7113393 6718553 6349033 6005027 5687121 5395935 5131538 4893001 
1471.001 4678277 4484196 4306963 4142759 3988264 3841216 3700503 3566152 
1474.859 3438950 3320069 3210634 3111411 3022640 2944019 2874723 2813625 
1478.716 2759415 2710808 2666654 2626062 2588462 2553583 2521344 2491750 
1482.573 2464662 2439716 2416321 2393734 2371300 2348655 2325788 2303140 
1486.431 2281280 2260807 2242016 2224856 2209083 2194379 2180629 2167996 
1490.288 2156914 2147787 2140764 2135566 2131408 2127282 2122166 2115422 
1494.146 2106884 2096816 2085747 2074237 2062665 2051164 2039770 2028529 
1498.003 2017662 2007542 1998554 1990965 1984755 1979627 1975111 1970716 
1501.861 1966225 1961670 1957317 1953547 1950616 1948540 1947074 1945828 
1505.718 1944338 1942324 1939716 1936613 1933214 1929700 1926147 1922519 
1509.575 1918658 1914449 1909835 1904904 1899866 1895058 1890783 1887377 
1513.433 1885016 1883661 1883047 1882722 1882133 1880727 1878068 1874063 
1517.290 1868856 1862926 1856869 1851351 1846871 1843713 1841921 1841262 
1521.148 1841379 1841786 1842007 1841646 1840408 1838126 1834798 1830533 
1525.005 1825539 1820084 1814418 1808786 1803336 1798196 1793391 1788973 
1528.863 1784843 1780977 1777279 1773720 1770299 1767215 1764701 1763177 
1532.720 1762955 1764229 1766913 1770684 1774927 1779073 1782606 1785288 
1536.577 1787140 1788391 1789323 1790146 1790859 1791295 1791133 1790095 
1540.435 1788009 1784918 1780977 1776471 1771606 1766586 1761494 1756321 
1544.292 1751039 1745560 1739784 1733652 1727143 1720278 1713199 1706175 
1548.150 1699441 1693250 1687693 1682691 1677964 1673108 1667723 1661613 
1552.007 1654782 1647542 1640351 1633752 1628140 1623781 1620622 1618427 
1555.865 1616859 1615559 1614295 1613020 1611790 1610846 1610397 1610610 
1559.722 1611404 1612522 1613481 1613789 1613047 1611165 1608402 1605414 
1563.579 1603050 1602175 1603397 1606959 1612580 1619654 1627324 1634727 
1567.437 1641114 1645967 1648975 1650084 1649456 1647565 1645140 1643128 
1571.294 1642523 1644185 1648510 1655368 1663989 1673197 1681669 1688328 
1575.152 1692611 1694590 1694873 1694337 1693789 1693707 1694166 1694871 
1579.009 1695388 1695343 1694535 1693039 1691043 1688836 1686639 1684600 
1582.866 1682781 1681267 1680149 1679569 1679612 1680268 1681339 1682459 
1586.724 1683164 1683115 1682117 1680374 1678344 1676760 1676281 1677421 
1590.581 1680295 1684623 1689819 1695201 1700214 1704629 1708602 1712638 
1594.439 1717359 1723371 1731013 1740271 1750804 1762002 1773109 1783454 
1598.296 1792414 1799565 1804719 1807946 1809557 1810162 1810599 1811775 
1602.154 1814533 1819439 1826666 1835970 1846766 1858273 1869750 1880662 
1606.011 1890706 1899795 1908031 1915605 1922685 1929539 1936360 1943442 
1609.868 1951023 1959244 1968191 1977726 1987597 1997562 2007375 2016959 
1613.726 2026267 2035351 2044138 2052502 2060170 2066901 2072559 2077245 
1617.583 2081193 2084817 2088482 2092426 2096759 2101481 2106587 2112167 
1621.441 2118408 2125491 2133403 2141857 2150235 2157713 2163503 2167121 
1625.298 2168536 2168240 2167005 2165741 2165110 2165379 2166410 2167830 
1629.156 2169168 2170150 2170736 2171228 2171953 2173286 2175323 2177984 
1633.013 2180887 2183574 2185631 2186879 2187373 2187504 2187730 2188543 
1636.870 2190183 2192557 2195156 2197291 2198207 2197324 2194474 2189957 
1640.728 2184496 2179010 2174334 2171007 2169108 2168291 2167894 2167261 
1644.585 2165796 2163307 2159946 2156200 2152750 2150248 2149218 2149914 
1648.443 2152249 2155806 2159928 2163900 2167058 2169010 2169689 2169516 
1652.300 2169184 2169647 2171816 2176358 2183512 2193079 2204394 2216576 
1656.157 2228540 2239256 2247957 2254250 2258261 2260716 2262734 2265667 
1660.015 2270695 2278549 2289242 2302096 2315887 2329260 2341107 2350883 
1663.872 2358724 2365310 2371564 2378397 2386342 2395643 2406110 2417515 
1667.730 2429578 2442153 2455229 2468846 2483023 2497731 2512851 2528211 
1671.587 2543606 2558840 2573746 2588204 2602081 2615484 2628598 2641778 
1675.445 2655452 2669982 2685508 2701928 2718931 2736201 2753577 2771249 
1679.302 2789750 2809769 2831876 2856307 2882711 2910269 2937911 2964690 
1683.159 2990041 3013960 3036940 3059806 3083267 3107780 3133398 3159966 
1687.017 3187183 3214962 3243490 3273262 3304870 3338917 3375671 3415178 
1690.874 3457054 3500827 3545909 3591966 3638855 3686772 3736002 3786989 
1694.732 3839971 3895117 3952313 4011453 4072459 4135541 4201152 4270075 
1698.589 4343163 4421144 4504414 4592940 4686235 4783762 4884975 4989733 
1702.447 5098261 5211157 5329161 5452951 5582950 5719341 5862053 6010986 
1706.304 6166079 6327481 6495542 6670912 6854372 7046890 7249465 7463133 
1710.161 7688652 7926474 8176519 8438268 8710716 8992719 9283137 9581139 
1714.019 9886217 10198118 10516757 10842025 11173744 11511711 11855752 
1717.394 12205891 12562393 12925747 13296565 13675503 14063199 14460374 
1720.769 14867707 15286177 15716940 16161519 16621797 17100282 17599890 
1724.145 18124204 18677070 19262492 19884170 20545464 21249248 21998466 
1727.520 22796396 23647348 24556530 25530214 26574982 27697316 28903356 
1730.895 30199208 31591376 33087564 34696568 36427964 38290460 40290520 
1734.270 42431020 44711368 47128644 49679760 52363128 55179344 58129812 
1737.646 61214180 64426904 67754776 71176024 74661480 78177384 81687936 
1741.021 85157160 88549192 91827520 94954696 97893408 100608824 103071592 
1744.396 105260184 107160960 108766808 110074880 111085296 111800608 
1747.289 112227360 112376496 112263848 111908040 111328528 110543096 
1750.182 109567336 108414832 107098720 105632480 104030120 102304936 
1753.075 100468400 98528992 96492872 94365040 92151488 89860704 87504640 
1756.450 85097968 82657240 80199008 77738952 75291176 72868136 70480520 
1759.826 68137816 65847860 63617052 61450320 59351480 57323484 55368848 
1763.201 53489732 51688088 49965140 48321380 46756120 45267724 43853636 
1766.576 42510872 41236140 40026200 38877612 37786776 36749592 35761620 
1769.951 34817900 33913452 33043340 32203112 31388720 30596560 29823094 
1773.327 29064766 28317720 27578052 26841980 26106488 25369468 24630122 
1776.702 23888656 23146034 22403302 21661170 20919880 20179348 19439618 
1780.077 18701426 17966480 17237624 16518418 15812738 15124168 14455719 
1783.452 13809600 13187456 12590262 12018721 11473069 10953338 10459235 
1786.828 9990460 9546673 9127801 8733903 8365072 8021184 7701689 7405344 
1790.685 7130512 6875201 6637419 6415518 6208211 6014605 5834093 5666150 
1794.542 5510282 5365873 5232389 5109199 4995646 4890973 4794289 4704542 
1798.400 4620578 4541215 4465490 4392532 4321842 4253138 4186425 4121778 
1802.257 4059529 3999918 3943237 3889558 3838838 3790829 3745266 3701868 
1806.115 3660591 3621490 3584651 3549907 3516684 3483871 3450052 3413776 
1809.972 3374042 3330458 3283348 3233496 3181724 3128528 3074085 3018310 
1813.830 2961522 2904720 2850000 2800118 2758105 2726258 2705556 2695128 
1817.687 2692639 2694837 2698507 2701281 2701903 2700098 2696263 2690685 
1821.544 2683530 2674423 2662746 2647798 2629047 2606206 2579431 2549243 
1825.402 2516633 2482891 2449556 2418010 2389249 2363571 2340701 2319817 
1829.259 2300168 2281231 2263013 2245856 2230011 2215233 2200531 2184339 
1833.117 2165146 2142053 2115410 2086565 2057560 2030116 2004976 1981489 
1836.974 1958047 1932853 1904835 1874224 1842568 1812030 1784536 1761014 
1840.832 1741276 1724232 1708779 1694455 1681735 1671573 1664831 1661162 
1844.689 1658944 1655346 1647401 1633079 1612321 1587145 1561240 1538693 
1848.546 1522739 1514627 1513473 1516472 1520179 1521512 1518933 1512626 
1852.404 1504415 1496800 1491960 1490658 1492141 1493994 1493237 1487224 
1856.261 1475062 1457697 1438103 1420170 1407444 1401812 1402859 1407856 
1860.119 1412831 1413661 1407596 1393777 1373421 1349163 1324191 1301360 
1863.976 1282770 1269691 1262827 1262475 1268491 1280182 1296105 1313919 
1867.833 1330984 1344713 1353534 1357101 1356525 1353668 1350620 1348718 
1871.691 1348302 1348536 1347931 1344713 1337530 1325515 1308832 1288426 
1875.548 1266266 1244871 1227194 1215755 1212008 1215451 1223654 1232380 
1879.406 1236932 1233474 1220515 1199438 1174320 1150602 1133416 1125946 
1883.263 1128626 1139122 1153285 1166387 1174479 1175134 1167859 1153892 
1887.121 1135933 1117537 1102528 1094293 1094965 1104629 1121269 1140765 
1890.978 1158281 1169554 1172522 1167867 1159036 1150723 1147224 1150666 
1894.835 1160376 1173136 1184547 1190661 1189523 1181421 1168818 1154955 
1898.693 1142987 1134767 1130665 1129522 1129234 1127049 1120297 1106886 
1902.550 1086068 1058978 1029094 1001765 983403 979258 992021 1020135 
1906.408 1058112 1097667 1130329 1149835 1154171 1145626 1129818 1113145 
1910.265 1100707 1094826 1094833 1098042 1101760 1104337 1106215 1109308 
1914.123 1116022 1127947 1145026 1164936 1183702 1196284 1197835 1184415 
1917.980 1154436 1108715 1050968 987202 924752 870618 830176 805422 795177 
1922.320 795216 800123 804757 805859 802656 796181 788067 779402 769871 
1926.659 758159 742828 724007 703848 686376 676019 675749 685092 699607 
1930.999 711698 713154 697684 664048 616717 565417 522317 498473 500054 
1935.338 526385 569525 616928 654913 673592 669663 647914 619398 598073 
1939.678 595613 618008 663080 721748 781141 829031 857932 867380 863412 
1944.018 856319 856493 871334 902758 947065 996090 1039844 1068952 1077550 
1948.357 1064349 1034043 995786 961578 942989 947562 975449 1018855 1062461 
1952.697 1088422 1081362 1034308 950989 845841 738695 649100 590368 566710 
1957.036 573658 602208 643599 693947 754446 830140 924731 1037744 1162322 
1961.376 1287406 1401085 1495184 1565650 1613102 1638499 1641761 1619830 
1965.233 1569264 1489279 1385849 1271547 1164240 1080939 1032798 1020561 
1969.091 1035635 1062783 1086798 1097003 1090022 1068486 1038439 1005631 
1972.948 974149 946345 925808 918417 933583 981019 1067689 1193568 1349408 
1977.288 1517761 1677404 1807816 1894712 1930623 1915304 1852290 1748095 
1981.145 1611157 1452815 1286981 1130618 1000383 910688 869704 877985 927732 
1985.485 1005080 1092883 1174226 1235775 1270269 1276954 1261512 1233766 
1989.342 1205721 1188760 1191214 1216691 1264492 1329704 1404656 1480461 
1993.200 1548300 1599622 1626928 1624332 1588940 1522074 1430676 1326561 
1997.057 1225018 1140677 1083984 1057176 1054521 1063581 1070196 1062691 
2000.915 1035705 990253 931858 866350 797431 725294 649049 569960 494940 
2005.254 436339 408931 423376 480633 568975 666672 749512 798714 806584 
2009.594 776959 720841 651075 577178 505105 438551 383615 349905 349319 
2013.933 390144 471636 580032 690930 776613 817606 810727 771735 730012 
2018.273 716398 749882 828991 931396 1022463 1068373 1049331 966019 838646 
2022.613 697010 569478 473215 412404 380644 369388 373506 394158 435415 
2026.952 498335 575811 651713 704518 716937 683044 613566 533071 472491 
2031.292 457225 499067 591191 711585 830875 923244 974843 987494 975749 
2035.631 961844 966635 1004720 1080518 1188993 1317196 1448179 1563173 
2039.489 1645838 1683769 1671938 1613607 1521077 1412933 1310708 1233072 
2043.346 1192039 1189486 1218164 1264392 1313555 1354165 1381500 1397124 
2047.204 1407114 1418068 1434103 1455171 1478422 1499693 1516613 1529223 
2051.061 1540299 1553207 1569998 1590185 1610517 1625493 1628779 1614778 
2054.918 1580333 1524533 1449459 1358792 1257987 1153265 1051686 959991 
2058.776 884198 827803 791767 773911 770842 778840 796037 822505 860135 
2063.115 910497 973302 1044697 1117907 1184644 1237619 1272789 1290519 
2066.973 1294481 1289933 1280788 1268213 1250198 1222976 1183449 1131396 
2070.830 1070205 1006479 947854 901424 871389 859246 863927 883287 914736 
2075.170 956021 1004318 1056115 1106782 1151199 1184840 1205488 1213940 
2079.027 1214292 1212695 1215798 1228391 1252379 1286016 1324971 1363003 
2082.885 1393827 1412082 1414478 1399627 1368269 1322766 1266752 1204344 
2086.742 1139928 1077172 1018950 966934 921621 882599 849007 819409 792406 
2091.082 766496 740749 714948 690310 669432 656283 655064 669041 698883 
2095.421 742045 792925 844417 889710 924734 948879 964926 977447 990953 
2099.761 1007675 1027193 1046218 1060593 1066550 1062778 1050695 1034740 
2103.618 1020865 1015347 1022941 1045924 1083090 1130384 1180854 1226833 
2107.476 1260982 1278592 1278552 1263938 1241143 1218209 1202319 1197847 
2111.333 1204719 1219103 1234141 1242533 1238125 1217782 1181205 1131133 
2115.191 1071905 1008917 947730 893906 852159 826254 817627 825108 844311 
2119.530 868518 889742 901083 897647 878029 843456 797162 742573 682719 
2123.870 619604 555236 491931 433331 383455 345703 321114 307128 297600 
2128.209 284461 259959 219689 164233 99693 36058 -15617 -46360 -51771 -33456 
2133.031 1561 42231 76469 93624 87230 55925 3743 -61681 -130668 -194857 
2137.853 -248365 -289295 -319160 -341741 -360570 -377504 -391695 -400790 
2141.710 -402067 -394949 -381924 -368841 -362281 -368109 -388077 -420306 
2145.568 -459272 -499462 -537745 -575548 -618145 -673461 -747703 -843195 
2149.425 -956335 -1078303 -1197122 -1300587 -1379244 -1429902 -1455262 
2152.801 -1466227 -1478466 -1510681 -1578550 -1690625 -1841497 -2010261 
2156.176 -2160369 -2247060 -2226628 -2070940 -1778653 -1381484 -935705 
2159.551 -506561 -146876 115053 276829 351382 356796 307444 215521 92525 
2163.891 -43608 -169049 -256087 -282241 -237922 -132094 10553 155927 274178 
2168.230 346964 373159 364851 340637 315055 293278 270277 236076 182985 
2172.570 113721 42020 -10542 -24544 9150 81357 166466 229313 238342 175912 
2177.392 45164 -131394 -317917 -476370 -573917 -590538 -520448 -371420 
2181.249 -161038 85588 341183 577403 769350 897191 950755 929984 846529 
2185.589 720796 578966 446988 346525 290578 283051 318930 387471 474958 
2189.928 568374 656961 733678 794310 837605 863301 871849 864113 842580 
2194.268 811400 777929 751228 741385 755798 796929 859969 933224 999863 
2198.607 1043346 1050765 1017733 949302 858980 764506 684130 631367 613077 
2202.947 628550 671150 729841 792452 846795 883507 896580 885310 853784 
2207.287 811597 770523 742071 733649 746549 774392 806405 830360 837651 
2211.626 826029 800975 773366 756476 760943 792930 851905 932644 1026556 
2215.966 1124383 1217010 1296179 1354888 1387808 1392181 1369394 1325481 
2219.823 1270248 1215053 1169912 1140388 1126454 1123198 1123859 1122806 
2223.681 1118272 1112744 1111643 1120617 1143280 1179590 1227149 1282021 
2227.538 1340980 1401858 1463092 1521652 1572953 1609795 1625322 1614925 
2231.396 1579634 1526076 1465849 1411587 1373676 1356573 1358728 1373394 
2235.253 1392035 1406997 1413908 1411333 1400139 1381676 1357351 1328322 
2239.110 1296726 1266073 1241634 1228435 1229910 1245595 1270973 1298673 
2242.968 1321300 1334137 1337785 1337379 1341233 1356834 1388134 1433066 
2246.825 1484402 1531664 1564861 1577596 1569280 1544713 1512873 1483695 
2250.683 1465707 1463409 1477014 1502324 1532504 1559436 1575877 1576480 
2254.540 1558843 1523535 1474226 1416404 1357076 1303283 1261383 1235846 
2258.397 1228972 1239784 1264872 1298186 1332762 1361676 1380276 1386620 
2262.255 1382408 1371929 1361121 1355297 1358072 1370390 1390874 1416457 
2266.112 1444009 1470779 1495256 1516752 1535093 1550078 1561825 1570515 
2269.970 1577077 1582923 1589988 1599350 1611220 1624113 1635666 1643411 
2273.827 1645889 1643541 1638617 1634213 1633378 1637535 1646464 1658605 
2277.685 1672172 1686107 1700963 1718533 1741048 1769690 1804024 1841718 
2281.542 1879226 1912917 1940332 1960560 1974333 1983149 1988463 1991076 
2285.399 1991133 1988115 1981733 1972026 1959688 1945606 1930662 1915282 
2289.257 1899564 1883379 1866857 1850486 1835486 1823243 1815111 1811873 
2293.114 1813585 1819283 1827530 1836440 1844401 1849949 1852290 1851059 
2296.972 1846533 1839081 1829362 1817973 1805308 1791655 1777098 1761877 
2300.829 1746288 1731005 1717099 1705780 1698377 1695783 1698514 1706425 
2304.687 1718775 1734264 1751479 1768813 1785075 1799402 1811758 1822594 
2308.544 1832938 1843809 1856002 1869527 1883700 1897092 1908359 1916533 
2312.401 1921697 1924964 1928374 1934082 1943920 1958651 1977865 2000252 
2316.259 2023773 2046400 2066330 2082351 2094210 2102748 2110396 2121030 
2320.116 2139498 2170537 2217005 2277949 2347649 2415500 2468084 2492139 
2323.974 2478072 2422492 2329271 2208463 2073990 1940553 1820636 1722285 
2327.831 1648345 1596988 1563265 1541372 1526291 1514851 1505790 1498936 
2331.688 1494338 1491495 1489285 1486157 1480863 1472820 1462561 1451341 
2335.546 1440997 1433232 1429328 1429686 1434034 1441259 1449878 1458322 
2339.403 1465102 1469147 1469914 1467314 1461698 1453522 1443438 1432092 
2343.261 1420316 1409246 1400213 1394727 1393833 1397933 1406290 1417072 
2347.118 1427820 1436096 1440257 1439835 1435789 1429799 1423871 1419236 
2350.976 1416312 1414580 1413116 1410988 1407910 1404040 1400019 1396383 
2354.833 1393395 1390674 1387620 1383647 1378445 1372054 1364750 1356787 
2358.690 1348077 1338176 1326466 1312447 1296064 1277721 1258265 1238551 
2362.548 1219339 1200947 1183439 1166852 1151498 1138010 1127377 1120649 
2366.405 1118484 1120987 1127647 1137164 1147989 1158374 1166731 1171789 
2370.263 1172822 1169819 1163557 1155568 1148030 1143081 1142502 1147084 
2374.120 1156473 1169263 1183589 1197660 1210383 1221424 1231204 1240279 
2377.978 1249007 1257141 1264106 1269127 1271874 1272451 1271671 1270475 
2381.835 1269670 1269663 1270399 1271656 1273424 1276169 1280683 1287911 
2385.692 1298432 1312080 1327931 1344527 1360395 1374387 1386021 1395221 
2389.550 1402252 1407045 1409433 1408962 1405439 1398943 1390251 1380480 
2393.407 1370826 1362078 1354636 1348365 1343074 1338785 1336038 1335712 
2397.265 1338595 1345013 1354395 1365175 1375284 1382521 1385369 1383327 
2401.122 1376930 1367604 1357380 1348193 1342020 1340224 1343817 1353270 
2404.979 1368427 1388399 1411750 1436466 1460478 1481617 1498502 1510192 
2408.837 1516389 1517236 1513286 1505196 1494161 1481349 1468363 1456743 
2412.694 1447664 1441549 1438148 1436222 1434408 1431434 1426868 1421010 
2416.552 1414980 1410027 1407069 1406392 1407573 1409869 1412806 1416290 
2420.409 1420766 1426724 1434360 1442796 1450390 1454741 1453955 1447161 
2424.267 1435129 1420121 1405509 1394223 1388464 1388512 1393213 1400230 
2428.124 1407103 1411925 1413780 1412739 1409706 1405693 1401720 1398536 
2431.981 1396495 1395702 1396036 1397072 1398060 1398042 1396104 1391720 
2435.839 1385143 1377411 1370453 1366356 1366921 1372945 1384251 1399526 
2439.696 1416980 1434689 1451219 1465536 1477236 1485847 1491114 1492739 
2443.554 1490381 1484245 1474921 1463351 1451039 1439126 1428573 1419964 
2447.411 1413538 1409329 1407470 1407821 1410244 1414117 1418665 1422836 
2451.269 1425775 1427142 1427242 1426913 1427284 1429154 1432847 1438017 
2455.126 1444005 1450053 1455766 1461076 1466141 1470871 1474834 1476932 
2458.983 1476114 1471496 1463232 1452313 1440598 1430160 1422504 1418071 
2462.841 1416248 1415649 1414792 1412686 1409273 1405104 1401249 1398418 
2466.698 1396894 1396199 1395544 1394126 1391606 1388141 1384566 1381785 
2470.556 1380695 1381661 1384602 1388821 1393573 1397921 1401307 1403498 
2474.413 1404910 1406189 1408482 1412613 1419272 1428338 1438989 1449777 
2478.271 1459023 1465135 1467151 1464838 1458809 1450054 1440013 1430186 
2482.128 1422064 1416981 1416072 1419891 1428205 1439569 1451589 1461236 
2485.985 1465627 1463122 1453835 1439650 1423908 1409975 1400382 1395883 
2489.843 1395643 1397618 1400004 1401822 1403641 1406999 1413781 1425002 
2493.700 1440439 1458272 1476089 1491468 1503200 1511197 1516598 1520867 
2497.558 1525080 1529404 1533175 1535142 1534220 1529820 1522411 1513066 
2501.415 1503433 1495058 1489143 1486143 1485950 1487607 1489559 1489997 
2505.272 1487112 1479747 1467996 1453093 1437783 1425424 1419265 1421407 
2509.130 1432226 1450102 1472118 1494653 1514771 1530817 1542733 1551591 
2512.987 1559000 1565939 1572273 1576470 1575944 1568079 1551249 1525571 
2516.845 1493549 1459377 1428618 1406044 1394920 1395761 1406294 1422212 
2520.702 1438535 1451100 1457948 1459412 1457963 1456683 1458266 1463850 
2524.560 1472938 1483657 1493983 1502388 1508343 1512290 1514820 1516247 
2528.417 1516408 1514591 1510597 1505047 1499665 1496848 1498834 1506407 
2532.274 1518662 1532812 1545241 1552789 1553851 1548985 1540600 1531794 
2536.132 1525491 1523344 1525525 1530965 1538188 1545832 1553309 1560354 
2539.989 1567146 1573574 1579372 1583866 1586430 1586577 1584212 1579546 
2543.847 1573142 1565651 1558140 1551764 1548021 1548160 1553202 1562946 
2547.704 1576221 1590642 1603528 1612384 1615834 1613902 1607802 1599171 
2551.562 1589653 1579789 1569460 1557943 1544973 1531031 1517952 1508267 
2555.419 1504809 1509403 1522403 1542428 1566606 1591409 1613431 1630148 
2559.276 1640360 1644000 1642166 1636371 1628386 1619710 1611669 1605098 
2563.134 1600653 1598800 1599902 1604246 1611954 1622701 1635920 1650423 
2566.991 1664874 1677897 1688681 1696851 1703003 1707939 1712548 1717262 
2570.849 1721909 1725788 1728137 1728625 1727659 1726433 1726480 1729029 
2574.706 1734551 1742276 1750543 1757165 1760382 1759184 1753849 1745666 
2578.563 1736569 1728571 1723513 1722507 1726171 1734432 1746708 1761998 
2582.421 1778816 1795434 1810277 1821821 1829124 1831789 1829850 1823782 
2586.278 1814194 1801808 1787737 1773315 1760413 1750984 1746779 1748760 
2590.136 1756791 1769385 1784279 1798806 1810930 1819429 1824360 1826629 
2593.993 1827537 1828182 1829273 1830881 1832838 1834892 1837000 1839221 
2597.851 1841750 1844629 1847842 1851074 1854219 1857182 1860102 1863101 
2601.708 1866330 1869594 1872597 1875066 1876904 1878305 1879872 1881993 
2605.565 1884913 1888133 1890678 1891273 1888900 1883266 1875205 1866360 
2609.423 1858935 1854963 1855965 1862348 1873722 1888814 1906061 1923677 
2613.280 1940008 1953422 1962700 1966782 1965241 1958267 1947076 1933413 
2617.138 1919649 1908052 1900456 1897860 1900424 1907419 1917746 1930170 
2620.995 1943624 1957341 1970817 1983716 1995753 2006620 2016059 2023988 
2624.853 2030592 2036278 2041664 2047169 2052985 2058689 2063464 2066058 
2628.710 2065471 2061158 2053508 2043770 2033905 2025955 2021596 2021788 
2632.567 2026403 2034561 2045007 2056549 2068257 2079437 2089635 2098192 
2636.425 2104305 2107030 2105786 2100661 2092783 2083986 2076522 2072297 
2640.282 2072203 2075753 2081416 2087082 2090806 2091642 2089642 2085840 
2644.140 2081519 2077688 2074640 2071823 2068317 2063213 2056249 2047953 
2647.997 2039493 2032318 2027569 2025759 2026520 2028855 2031343 2032651 
2651.854 2031858 2028525 2022730 2015046 2006161 1996826 1987846 1979794 
2655.712 1973171 1968185 1964934 1963142 1962378 1961875 1960770 1958159 
2659.569 1953307 1945702 1935450 1922990 1909227 1895218 1882040 1870311 
2663.427 1860265 1851597 1843653 1835724 1827148 1817474 1806505 1794125 
2667.284 1780332 1765126 1748724 1731663 1714957 1700043 1688518 1681659 
2671.142 1679996 1683048 1689307 1696611 1702858 1706463 1706834 1704309 
2674.999 1699958 1694885 1689937 1685329 1680981 1676486 1671811 1667332 
2678.856 1663841 1662286 1663233 1666622 1671634 1676901 1680853 1682219 
2682.714 1680448 1675726 1668946 1661380 1654271 1648406 1644234 1641614 
2686.571 1640076 1639080 1638136 1637003 1635789 1634745 1634288 1634680 
2690.429 1636031 1638060 1640307 1642138 1643047 1642709 1641274 1639079 
2694.286 1636702 1634622 1633195 1632327 1631677 1630737 1629107 1626508 
2698.144 1623055 1619020 1614921 1611202 1608116 1605663 1603573 1601264 
2702.001 1598201 1593767 1587869 1580690 1572972 1565843 1560546 1558217 
2705.858 1559349 1563779 1570574 1578263 1585328 1590557 1593460 1594381 
2709.716 1594292 1594366 1595605 1598448 1602657 1607424 1611718 1614702 
2713.573 1616001 1615751 1614588 1613434 1613045 1613979 1616291 1619562 
2717.431 1623027 1625688 1626589 1625050 1620862 1614408 1606736 1599308 
2721.288 1593734 1591457 1593238 1598970 1607731 1617896 1627662 1635419 
2725.146 1640166 1641702 1640436 1637382 1633559 1629807 1626668 1624353 
2729.003 1622834 1621920 1621528 1621594 1622054 1622818 1623728 1624511 
2732.860 1624990 1625056 1624746 1624270 1623987 1624209 1625130 1626951 
2736.718 1629600 1632921 1636675 1640551 1644179 1647091 1648854 1649052 
2740.575 1647611 1644651 1640777 1636930 1634196 1633544 1635601 1640377 
2744.433 1647211 1654942 1662168 1667442 1669663 1668295 1663400 1655642 
2748.290 1646064 1636039 1626852 1619601 1614943 1612964 1613209 1614777 
2752.147 1616668 1617884 1617937 1616842 1615174 1613616 1612992 1613728 
2756.005 1615805 1618781 1621981 1624756 1626698 1627724 1627925 1627468 
2759.862 1626408 1624699 1622220 1619007 1615339 1611707 1608917 1607621 
2763.720 1608161 1610465 1614088 1618325 1622545 1626386 1629755 1632892 
2767.577 1635974 1639141 1642272 1644985 1646844 1647316 1646087 1643013 
2771.435 1638217 1632097 1625267 1618641 1613307 1610365 1610589 1614288 
2775.292 1621092 1629921 1639295 1647750 1654099 1657941 1659470 1659403 
2779.149 1658590 1657626 1656831 1656231 1655855 1655843 1656597 1658660 
2783.007 1662313 1667491 1673475 1679218 1683682 1686210 1686867 1686466 
2786.864 1686318 1687565 1690967 1696411 1703152 1709969 1715749 1719703 
2790.722 1721781 1722342 1722170 1722027 1722681 1724564 1728054 1733414 
2794.579 1740757 1750123 1761223 1773445 1785974 1797812 1808065 1816186 
2798.437 1821996 1825642 1827614 1828296 1828215 1827578 1826668 1825738 
2802.294 1825139 1825320 1826785 1829909 1834826 1841312 1848847 1856573 
2806.151 1863595 1869099 1872556 1873945 1873700 1872652 1871905 1872519 
2810.009 1875327 1880689 1888484 1898230 1909324 1921029 1932947 1944728 
2813.866 1956277 1967367 1977864 1987399 1995771 2002828 2008891 2014416 
2817.724 2020180 2026847 2034800 2043876 2053507 2062714 2070603 2076547 
2821.581 2080610 2083515 2086620 2091562 2099856 2112493 2129649 2150395 
2825.438 2173094 2195625 2216012 2232956 2246254 2256876 2266691 2277838 
2829.296 2292073 2310299 2332222 2356461 2381266 2404880 2426372 2445777 
2833.153 2464014 2482442 2502555 2525277 2551011 2579532 2610276 2642545 
2837.011 2675747 2709409 2743247 2777066 2810866 2844832 2879626 2916215 
2840.868 2956105 3000902 3052273 3111736 3180640 3260149 3351351 3455035 
2844.726 3571635 3700593 3840047 3986278 4133696 4275194 4402978 4509307 
2848.583 4587814 4634190 4646707 4626151 4575778 4500310 4405546 4297616 
2852.440 4182354 4064887 3949472 3839365 3736834 3643188 3559102 3484466 
2856.298 3418721 3360887 3309690 3263718 3221546 3181863 3143666 3106216 
2860.155 3069251 3032838 2997452 2963881 2933259 2906905 2886122 2871966 
2864.013 2865060 2865299 2871833 2883257 2897989 2914575 2932054 2950211 
2867.870 2969341 2990222 3013665 3040354 3070788 3105239 3143932 3186897 
2871.728 3234156 3285258 3339410 3395167 3450929 3505186 3556896 3605969 
2875.585 3652996 3699055 3745176 3791662 3837926 3882332 3922831 3957381 
2879.442 3984683 4004304 4016869 4023563 4025854 4024940 4021541 4015812 
2883.300 4007616 3996626 3982644 3965680 3946285 3925210 3903806 3883444 
2887.157 3865692 3851786 3842680 3838456 3838732 3842590 3849097 3857343 
2891.015 3867015 3878142 3891033 3906076 3923319 3942519 3963182 3984855 
2894.872 4007282 4030581 4055150 4081476 4109730 4139706 4170709 4201721 
2898.729 4231886 4260467 4287247 4312418 4336448 4359884 4383331 4407289 
2902.587 4432352 4459074 4488013 4519510 4553789 4590682 4629925 4671210 
2906.444 4714581 4760491 4809975 4864178 4924284 4991134 5065195 5146612 
2910.302 5235664 5332876 5439314 5556278 5684985 5825674 5977311 6136999 
2914.159 6300167 6461208 6614159 6753690 6875809 6978070 7059885 7121805 
2918.017 7165359 7192188 7203929 7201833 7186947 7160252 7122950 7076629 
2921.874 7023303 6965367 6905385 6845699 6788300 6734464 6685076 6640471 
2925.731 6600729 6565609 6534868 6507931 6484218 6463063 6443944 6426885 
2929.589 6412549 6402384 6398333 6402388 6415974 6439508 6472313 6512829 
2933.446 6559446 6611101 6668111 6732113 6805831 6892221 6993535 7110568 
2937.304 7242318 7386260 7538886 7696603 7856304 8015537 8172433 8325419 
2941.161 8472700 8611857 8740225 8854820 8953018 9032730 9092532 9131736 
2945.019 9150125 9147745 9124921 9082381 9021346 8943691 8851982 8749347 
2948.876 8638778 8523027 8403922 8282409 8158586 8032149 7902907 7771083 
2952.733 7637734 7504597 7373670 7246866 7125621 7010482 6901155 6796916 
2956.591 6696877 6600403 6507291 6417934 6332835 6252428 6176685 6105024 
2960.448 6036497 5969875 5904285 5839353 5775388 5713221 5654028 5598794 
2964.306 5548230 5502314 5460573 5422059 5385646 5350224 5314965 5279408 
2968.163 5243418 5207316 5171835 5137889 5106604 5079011 5055899 5037830 
2972.021 5025031 5017399 5014884 5017305 5024706 5037191 5054847 5077739 
2975.878 5105699 5138260 5174914 5215000 5258101 5303891 5352520 5404620 
2979.735 5461071 5523211 5592544 5670574 5758590 5857410 5967203 6087605 
2983.593 6217935 6357273 6505131 6661449 6826657 7001440 7186311 7381003 
2987.450 7584274 7793781 8006429 8218603 8426907 8628390 8820616 9001695 
2991.308 9169805 9323166 9459865 9578054 9676161 9753148 9808848 9843814 
2995.165 9859154 9856223 9836332 9800420 9749342 9683568 9603615 9510114 
2999.022 9404091 9286746 9159690 9024666 8883419 8737411 8587869 8435480 
3002.880 8280678 8123378 7963668 7801591 7637650 7472536 7307265 7142846 
3006.737 6980023 6819192 6660417 6503442 6348125 6194406 6042620 5893276 
3010.595 5746978 5604181 5465293 5330325 5199348 5072416 4949591 4831070 
3014.452 4717041 4607432 4501923 4399928 4300945 4204575 4110898 4020402 
3018.310 3933971 3852276 3775785 3704347 3637041 3572444 3508936 3445318 
3022.167 3380856 3315698 3250767 3187623 3127989 3073441 3025092 2983290 
3026.024 2947607 2916936 2889718 2864188 2838861 2812628 2784833 2755356 
3029.882 2724430 2692344 2659282 2625305 2590324 2554305 2517569 2480749 
3033.739 2445105 2412030 2383088 2359427 2341689 2329661 2322321 2318101 
3037.597 2315100 2311431 2305723 2297103 2285489 2271484 2256186 2240946 
3041.454 2227014 2215304 2206184 2199388 2194252 2189791 2185000 2179192 
3045.312 2172071 2163777 2154774 2145594 2136709 2128253 2120133 2112032 
3049.169 2103600 2094601 2085025 2074933 2064531 2053952 2043145 2032170 
3053.026 2021080 2010172 2000084 1991626 1985632 1982574 1982435 1984516 
3056.884 1987666 1990643 1992572 1993174 1992881 1992629 1993273 1995326 
3060.741 1998564 2001958 2004333 2004514 2002152 1997604 1992066 1986949 
3064.599 1983428 1981884 1981753 1981910 1981056 1978294 1973726 1968280 
3068.456 1963699 1961758 1963769 1970147 1980275 1992534 2004912 2015363 
3072.313 2022241 2024626 2022307 2015728 2005839 1993952 1981461 1969785 
3076.171 1960186 1953500 1950155 1949974 1952277 1955957 1959783 1962554 
3080.028 1963493 1962101 1958493 1953050 1946403 1939413 1933001 1928173 
3083.886 1925873 1926817 1931317 1939169 1949192 1959592 1968273 1973190 
3087.743 1973238 1968490 1960427 1951594 1944888 1942553 1945505 1952917 
3091.601 1962461 1970834 1974968 1972644 1963279 1947682 1928067 1906909 
3095.458 1886704 1869326 1856084 1847666 1844322 1846066 1852338 1861974 
3099.315 1873279 1883923 1891601 1894479 1891856 1884240 1873537 1862342 
3103.173 1853354 1848711 1849561 1855803 1866355 1879363 1892564 1903557 
3107.030 1910295 1911144 1905394 1893333 1876507 1857380 1839022 1824380 
3110.888 1815668 1813693 1817788 1826003 1835631 1843915 1848708 1848868 
3114.745 1844353 1836279 1826392 1816922 1810066 1807352 1809558 1816298 
3118.603 1826067 1836688 1845783 1851737 1854162 1854039 1853372 1854476 
3122.460 1858978 1866986 1876948 1886127 1891362 1890184 1881572 1866017 
3126.317 1845503 1822414 1799101 1777381 1758534 1743348 1732517 1726787 
3130.175 1726623 1731815 1741360 1753357 1765506 1775715 1783045 1787811 
3134.032 1791652 1796811 1805096 1817270 1832461 1848563 1862891 1872988 
3137.890 1877451 1876200 1870299 1861423 1851332 1841239 1831776 1822997 
3141.747 1814743 1806877 1799589 1793407 1789071 1787372 1789018 1794318 
3145.604 1803284 1815401 1829868 1845503 1861029 1874996 1886176 1893500 
3149.462 1896160 1893837 1886676 1875449 1861542 1846701 1832989 1822175 
3153.319 1815413 1812970 1814306 1818174 1823473 1829463 1836154 1844056 
3157.177 1853795 1865330 1877590 1888465 1895439 1896450 1890901 1880201 
3161.034 1867387 1856152 1849756 1849560 1854760 1862447 1869032 1871432 
3164.892 1868327 1860638 1851119 1843331 1840294 1843499 1852534 1865392 
3168.749 1879320 1891496 1900100 1904340 1904427 1901223 1895939 1889686 
3172.606 1883355 1877471 1872160 1867072 1861439 1854162 1844186 1830870 
3176.464 1814426 1796039 1777777 1762028 1750894 1745591 1746208 1751680 
3180.321 1760280 1770122 1779785 1788384 1795790 1802205 1807938 1813214 
3184.179 1818117 1822776 1827478 1832675 1839082 1847192 1857285 1868997 
3188.036 1881443 1893208 1902856 1908982 1910664 1907545 1899912 1888601 
3191.894 1874876 1860354 1846751 1835741 1828684 1826343 1828860 1835648 
3195.751 1845560 1857160 1869045 1880138 1889701 1897472 1903281 1906963 
3199.608 1908218 1906581 1901794 1894028 1884217 1874038 1865706 1861459 
3203.466 1862729 1869765 1881238 1894524 1906339 1913830 1915345 1911045 
3207.323 1903005 1894445 1888771 1888667 1895116 1907281 1922955 1939185 
3211.181 1953340 1963723 1969857 1972247 1972079 1970507 1968383 1966162 
3215.038 1964069 1962290 1961157 1961008 1962156 1964493 1967664 1970846 
3218.896 1973316 1974477 1974177 1972525 1969833 1966178 1961503 1955734 
3222.753 1949043 1942187 1936781 1934634 1937296 1945257 1957240 1970410 
3226.610 1980897 1985010 1980599 1967857 1949342 1929349 1912465 1902174 
3230.468 1899767 1904033 1911817 1919212 1922842 1920697 1912751 1900753 
3234.325 1887482 1875880 1868393 1866303 1869765 1877770 1888496 1899704 
3238.183 1909296 1915715 1918296 1917341 1914046 1909934 1906485 1904482 
3242.040 1903872 1903916 1903622 1902250 1899831 1897258 1895764 1896514 
3245.897 1900033 1905756 1912363 1918231 1922127 1923732 1923701 1923430 
3249.755 1924327 1927319 1932387 1938801 1945445 1951371 1956140 1959894 
3253.612 1963016 1965723 1967752 1968471 1967132 1963322 1957431 1950576 
3257.470 1944213 1939499 1936722 1934852 1931985 1925822 1914796 1898884 
3261.327 1879826 1861039 1846684 1840386 1844437 1858798 1881275 1907960 
3265.185 1934252 1955906 1970063 1975688 1973653 1966172 1956208 1946681 
3269.042 1939612 1935989 1935670 1937713 1940756 1943525 1945296 1945835 
3272.899 1945539 1945177 1945562 1947411 1951042 1956356 1962664 1968885 
3276.757 1973808 1976169 1975204 1970727 1963461 1954695 1946192 1939482 
3280.614 1935482 1934400 1935422 1937426 1939320 1940565 1941445 1942811 
3284.472 1945722 1950763 1957637 1965132 1971260 1974034 1972081 1965114 
3288.329 1953982 1940405 1926518 1914162 1904665 1898713 1896494 1897910 
3292.187 1902864 1911003 1921998 1934899 1948514 1961225 1971418 1977862 
3296.044 1980000 1978109 1973215 1966791 1960487 1955711 1953304 1953546 
3299.901 1956003 1959582 1962928 1964346 1962415 1956090 1945162 1930292 
3303.759 1913068 1895620 1880242 1868990 1863182 1863365 1869130 1879505 
3307.616 1893114 1908361 1923848 1938174 1950449 1959915 1966494 1970350 
3311.474 1972206 1972837 1973091 1973457 1973988 1974454 1974318 1973213 
3315.331 1971017 1967996 1964796 1961996 1960131 1959302 1959397 1960183 
3319.188 1961438 1963306 1966011 1969743 1974368 1979207 1982875 1983833 
3323.046 1980805 1973178 1961708 1948249 1935591 1926626 1923589 1927419 
3326.903 1937429 1951498 1966555 1979439 1987642 1989887 1986372 1978617 
3330.761 1969003 1960014 1953886 1951931 1954451 1960611 1968933 1977359 
3334.618 1983861 1986713 1984715 1977472 1965442 1949925 1932803 1916395 
3338.476 1902965 1894318 1891464 1894293 1901765 1912077 1923302 1933733 
3342.333 1942418 1949187 1954699 1959899 1965730 1972708 1980846 1989616 
3346.190 1998321 2006085 2012277 2016255 2017603 2015768 2010545 2001878 
3350.048 1990306 1976987 1963745 1952638 1945547 1943575 1946669 1953852 
3353.905 1963210 1972718 1980731 1986380 1989675 1991189 1991813 1992122 
3357.763 1992228 1991713 1989743 1985560 1978647 1969068 1957513 1945300 
3361.620 1934089 1925517 1920917 1920910 1925228 1932551 1940984 1948301 
3365.478 1952772 1953617 1951399 1947755 1945027 1945339 1949927 1958667 
3369.335 1970092 1981894 1991538 1997133 1997849 1994012 1986811 1977898 
3373.192 1969062 1961856 1957559 1957079 1961042 1969257 1980909 1994153 
3377.050 2006461 2014950 2017337 2012472 2000934 1984966 1967952 1953545 
3380.907 1944584 1942454 1946751 1955591 1966126 1975495 1981345 1982389 
3384.765 1978534 1970654 1960543 1950226 1941977 1937602 1938333 1944581 
3388.622 1955745 1970384 1986463 2001739 2014141 2022207 2025160 2023112 
3392.479 2016870 2007664 1997122 1986738 1977844 1971194 1966948 1964491 
3396.337 1962740 1960236 1955746 1948518 1938653 1926902 1914603 1903167 
3400.194 1893749 1887010 1883055 1881553 1882276 1884792 1888999 1894623 
3404.052 1901552 1909248 1917062 1924431 1930820 1936056 1940150 1943342 
3407.909 1945687 1946969 1946867 1944796 1940401 1933658 1925219 1916194 
3411.767 1908277 1903165 1902495 1907277 1917777 1933415 1952521 1972908 
3415.624 1991915 2007224 2017295 2021642 2021181 2017621 2012992 2008958 
3419.481 2006336 2004770 2003146 2000062 1994692 1986975 1977764 1968562 
3423.339 1960656 1954817 1950954 1948252 1945651 1942521 1938942 1935833 
3427.196 1934633 1936585 1942288 1951355 1962358 1973399 1982452 1988283 
3431.054 1990578 1990155 1988545 1987626 1989012 1993580 2001308 2011150 
3434.911 2021480 2030544 2036887 2039874 2039779 2037629 2035005 2033351 
3438.769 2033717 2036254 2040387 2044913 2048447 2049648 2047715 2042499 
3442.626 2034483 2024812 2014942 2006504 2001037 1999639 2002534 2009363 
3446.483 2018834 2029349 2039486 2048341 2055960 2063047 2070879 2080440 
3450.341 2092114 2105160 2118269 2129758 2138235 2143129 2144589 2143344 
3454.198 2140184 2135502 2129159 2120665 2109719 2096542 2082211 2068692 
3458.056 2058120 2052575 2053140 2060038 2072540 2089325 2108883 2129729 
3461.913 2150735 2170900 2189501 2205839 2219412 2229902 2237435 2242257 
3465.771 2245110 2246692 2247845 2249218 2251420 2254777 2259337 2264844 
3469.628 2270643 2276129 2280543 2283639 2285661 2287368 2289718 2293389 
3473.485 2298299 2303515 2307318 2308106 2304895 2298129 2289747 2282896 
3477.343 2280885 2286231 2299711 2320312 2345276 2371048 2394300 2412617 
3481.200 2424906 2431466 2433562 2433101 2432277 2433259 2438077 2448305 
3485.058 2464803 2487342 2514611 2544124 2572675 2597031 2614755 2624677 
3488.915 2627392 2624967 2620483 2617315 2618383 2625488 2639117 2658380 
3492.772 2681383 2705798 2729494 2750959 2769839 2786591 2802382 2818320 
3496.630 2835032 2852163 2868628 2882819 2893470 2900250 2904041 2906817 
3500.487 2911048 2918685 2930487 2945523 2961475 2975066 2983158 2983557 
3504.345 2975573 2960056 2939174 2915577 2892001 2870446 2852168 2837535 
3508.202 2826261 2817863 2811879 2808155 2806882 2808381 2812903 2820210 
3512.060 2829215 2838234 2844885 2846995 2842867 2832058 2815447 2795049 
3515.917 2773509 2753414 2736554 2723725 2714595 2707883 2702107 2695701 
3519.774 2687478 2676795 2663487 2647910 2630928 2613755 2597777 2584372 
3523.632 2574741 2569513 2568641 2571392 2576531 2582420 2587431 2590019 
3527.489 2588887 2583166 2572534 2557335 2538708 2518462 2498915 2482266 
3531.347 2470227 2463584 2461803 2463459 2466568 2469200 2469918 2468137 
3535.204 2464010 2458144 2451372 2444480 2438098 2432762 2428925 2426767 
3539.062 2426430 2427512 2429439 2431343 2432389 2431957 2429845 2426050 
3542.919 2420668 2413544 2404331 2392588 2378098 2361280 2343184 2325490 
3546.776 2309726 2296857 2286921 2279023 2271840 2264237 2256083 2248333 
3550.634 2242730 2241208 2245070 2254415 2268098 2284092 2300151 2314256 
3554.491 2325186 2332329 2335540 2334899 2330634 2323114 2313188 2302183 
3558.349 2291725 2283431 2278260 2276354 2276662 2277473 2276871 2273336 
3562.206 2266457 2256739 2245941 2236326 2230243 2229922 2236946 2251859 
3566.063 2274175 2302185 2333087 2363415 2389615 2408753 2419144 2420623 
3569.921 2414379 2402619 2387960 2372458 2357771 2344546 2333062 2323222 
3573.778 2314906 2308127 2302884 2299047 2296291 2294220 2292329 2290087 
3577.636 2287088 2282777 2276695 2268182 2256803 2242341 2225326 2206923 
3581.493 2188988 2173444 2161869 2155251 2153459 2155470 2159577 2163914 
3585.351 2166915 2167400 2165137 2160427 2154355 2148269 2143760 2142132 
3589.208 2144059 2149303 2156804 2164958 2172053 2176713 2178586 2178094 
3593.065 2176370 2174489 2173247 2172512 2171645 2169713 2166042 2160690 
3596.923 2154129 2147288 2140868 2135016 2129330 2123197 2116107 2108289 
3600.780 2100639 2094318 2090269 2088747 2088942 2089366 2088303 2084577 
3604.638 2077969 2069242 2059847 2051395 2045095 2041422 2040290 2041350 
3608.495 2044190 2048752 2055144 2063575 2073947 2085693 2097891 2109122 
3612.353 2118077 2123650 2125171 2122760 2117181 2109877 2102632 2097267 
3616.210 2095167 2096952 2102114 2109246 2116403 2121753 2124162 2123570 
3620.067 2120899 2117607 2115299 2114948 2116689 2120122 2124540 2129557 
3623.925 2135098 2141480 2149167 2158354 2168738 2179722 2190721 2201457 
3627.782 2212268 2223949 2237414 2253140 2270873 2289515 2307249 2322242 
3631.640 2332881 2338198 2338118 2333273 2325055 2315368 2306364 2300291 
3635.497 2299203 2304349 2315926 2332925 2353404 2374894 2395181 2412917 
3639.354 2428199 2441943 2455900 2471724 2490250 2511492 2534545 2557999 
3643.212 2580200 2599734 2615433 2626386 2632050 2632276 2627490 2618919 
3647.069 2608492 2598395 2590814 2587077 2587713 2592136 2599252 2607759 
3650.927 2616785 2625863 2634723 2643080 2650431 2656012 2659157 2659730 
3654.784 2658430 2656663 2656041 2657733 2661903 2667540 2672920 2676120 
3658.642 2676053 2672732 2667264 2661339 2656399 2653048 2650832 2648356 
3662.499 2643991 2636455 2625030 2609851 2591597 2571057 2549132 2526661 
3666.356 2504608 2483847 2465465 2450215 2438356 2429346 2422037 2415047 
3670.214 2407464 2398915 2390229 2382838 2378211 2377276 2379984 2385387 
3674.071 2391878 2397939 2402431 2405194 2406437 2406777 2406277 2404601 
3677.929 2400735 2393528 2382026 2365981 2345913 2323046 2298852 2274891 
3681.786 2252399 2232144 2214769 2200756 2190292 2183463 2180135 2179591 
3685.644 2180706 2182118 2182477 2180831 2176905 2171170 2164493 2158024 
3689.501 2152768 2149109 2147072 2146262 2146233 2146525 2146719 2146540 
3693.358 2145357 2142301 2136217 2125977 2110809 2090813 2067093 2041757 
3697.216 2017474 1996834 1981811 1973423 1971669 1975910 1985017 1997900 
3701.073 2013544 2030882 2048712 2065504 2079667 2089745 2095015 2095661 
3704.931 2092887 2088483 2084277 2081463 2080340 2080275 2080359 2079746 
3708.788 2078547 2077610 2078490 2082595 2090700 2102245 2115650 2128462 
3712.646 2138298 2143613 2143941 2140304 2134396 2128250 2123474 2120831 
3716.503 2120257 2120807 2121057 2119747 2116003 2109636 2101320 2092366 
3720.360 2084508 2079421 2078441 2082258 2090736 2103064 2117947 2133709 
3724.218 2148765 2161424 2170059 2173292 2170145 2160178 2143964 2123143 
3728.075 2100330 2078477 2060200 2047114 2039282 2035428 2033475 2031447 
3731.933 2028416 2024659 2021915 2022414 2027861 2038722 2053797 2070557 
3735.790 2086082 2097988 2105320 2108740 2110379 2112722 2117713 2126107 
3739.647 2137114 2148803 2158876 2165372 2167435 2165641 2161648 2157842 
3743.505 2156436 2158738 2164962 2173603 2182309 2188250 2189035 2183479 
3747.362 2171831 2155865 2138651 2123498 2113414 2110175 2113983 2123395 
3751.220 2136020 2148801 2159193 2165367 2166452 2162634 2154782 2144055 
3755.077 2131662 2118952 2107084 2097180 2090363 2087479 2088819 2094158 
3758.935 2102475 2112043 2120870 2127037 2129430 2127797 2123183 2117507 
3762.792 2113156 2111962 2114911 2121499 2129984 2137827 2142601 2142913 
3766.649 2138889 2132233 2125702 2122003 2122970 2128505 2136736 2144463 
3770.507 2148243 2145581 2135968 2121099 2104443 2090164 2081972 2081985 
3774.364 2090053 2104077 2120475 2135536 2146076 2150546 2148945 2142713 
3778.222 2134223 2125846 2119547 2116469 2116916 2120460 2126149 2132906 
3782.079 2139436 2144597 2147258 2146744 2142801 2136075 2127835 2120255 
3785.937 2115620 2115763 2121573 2132280 2145850 2159031 2168552 2171970 
3789.794 2168341 2158577 2144982 2130532 2117810 2108267 2101803 2097055 
3793.651 2092217 2085646 2076948 2066885 2057509 2051314 2050530 2056255 
3797.509 2068173 2084491 2102243 2118203 2129387 2133930 2131369 2122838 
3801.366 2110796 2098217 2087996 2082123 2081341 2084923 2091340 2098588 
3805.224 2105047 2109694 2112299 2113294 2113255 2112692 2111899 2111068 
3809.081 2110721 2111653 2114976 2121740 2132215 2145443 2159354 2171017 
3812.938 2177627 2177582 2171200 2160566 2149161 2140597 2137166 2139255 
3816.796 2145034 2151352 2154673 2152395 2143631 2129264 2111588 2093691 
3820.653 2078522 2068426 2064918 2068474 2078698 2094340 2113296 2132812 
3824.511 2149844 2161323 2165229 2160815 2149182 2132807 2115249 2099948 
3828.368 2089641 2085460 2086892 2092153 2098636 2103720 2105360 2102694 
3832.226 2096221 2087651 2079657 2075032 2076129 2083735 2097147 2113717 
3836.083 2129700 2141246 2145481 2141578 2130873 2116419 2102039 2090799 
3839.940 2084376 2082486 2083546 2085406 2086518 2086458 2086075 2086840 
3843.798 2090145 2096482 2105284 2114954 2123439 2128958 2130490 2127917 
3847.655 2122025 2114118 2105692 2098182 2092904 2090776 2092317 2097540 
3851.513 2105892 2116198 2127270 2137918 2147470 2155913 2163492 2170504 
3855.370 2176818 2181672 2183847 2182321 2176767 2168118 2158548 2150944 
3859.228 2148040 2151508 2161454 2176171 2192929 2208629 2220483 2226881 
3863.085 2227224 2221730 2211292 2196869 2179733 2161193 2142962 2126752 
3866.942 2114315 2106716 2104448 2106865 2112631 2120087 2127622 2134212 
3870.800 2139465 2143642 2147157 2150543 2153865 2157109 2159926 2161963 
3874.657 2163012 2162839 2161508 2158799 2154774 2149305 2142402 2134275 
3878.515 2125379 2116390 2108297 2102103 2098863 2099228 2103316 2110623 
3882.372 2119951 2129451 2137377 2142242 2143447 2141679 2138464 2135862 
3886.229 2135696 2138635 2144156 2150293 2154591 2154923 2150271 2141414 
3890.087 2130611 2121046 2115944 2117433 2126105 2140721 2158648 2176489 
3893.944 2190951 2199366 2200174 2193007 2178843 2159774 2138767 2119195 
3897.802 2104446 2097213 2099016 2109910 2128226 2150932 2174288 2194444 
3901.659 2208296 2213860 2210676 2199761 2183236 2164102 2145726 2130976 
3905.517 2122106 2120036 2124321 2132985 2143238 2151803 2156029 2154577 
3909.374 2147851 2137910 2127980 2121446 2120985 2127625 2140606 2157845 
3913.231 2176614 2194482 2209978 2222891 2233955 2243905 2253109 2260895 
3917.089 2265815 2266173 2261032 2250799 2237459 2224314 2214916 2211991 
3920.946 2216567 2227448 2241941 2256241 2266936 2271799 2270115 2262845 
3924.804 2251790 2239021 2226369 2214807 2204720 2195936 2188152 2181249 
3928.661 2175347 2170855 2168431 2168658 2171865 2177962 2186330 2195716 
3932.519 2204616 2211527 2215626 2216822 2215971 2214513 2213860 2214738 
3936.376 2216846 2218849 2218909 2215560 2208363 2198388 2187923 2179663 
3940.233 2175937 2177737 2184564 2194606 2205551 2215282 2222368 2226439 
3944.091 2227863 2227327 2225852 2224297 2223800 2225304 2229696 2237070 
3947.948 2246713 2256636 2264124 2266283 2261428 2249411 2232352 2213740 
3951.806 2197604 2187143 2183722 2186867 2194550 2204067 2213148 2220454 
3955.663 2225570 2228683 2230137 2229957 2228170 2224801 2220435 2216148 
3959.521 2213242 2212608 2214379 2217507 2220463 2221344 2218862 2212841 
3963.378 2204133 2194238 2184874 2177344 2172486 2170488 2171378 2174823 
3967.235 2180518 2187719 2195588 2203127 2209455 2214413 2218439 2222799 
3971.093 2228840 2237255 2247739 2258920 2268623 2274968 2277138 2275760 
3974.950 2272847 2270787 2271517 2275623 2282134 2289007 2294039 2295746 
3978.808 2293980 2289903 2285531 2282815 2283078 2286415 2292079 2298347 
3982.665 2303278 2304988 2302164 2294230 2281665 2266021 2249613 2235182 
3986.522 2225097 2220416 2220751 2224098 2227673 2228933 2226712 2221679 
3990.380 2216216 2213457 2216189 2225486 2240667 2259458 2278913 2296471 
3994.237 2310682 2321221 2328477 2332971 2334903 2334139 2330568 2324688 
3998.095 2317732 2311433 2307469 2306525 2308039 2310197 
##END=
