##TITLE=Tecor_PETG_White_Filament_r6_ATR-Corrected
##JCAMP-DX=5.01  $$ Nicolet v. 1
##DATATYPE=INFRARED SPECTRUM
##ORIGIN=Curtin University
##OWNER=Nicolet
##LONGDATE=2024/07/19
##TIME=09:32:58
##SPECTROMETER/DATA SYSTEM=Nicolet iS50
##DATA PROCESSING=
Ratio against background
%Transmittance->Absorbance
ATR Correction
Truncated
ElementMultiply or ElementDivide
##COMMENTS=
Number of sample scans: 32
Collection length: 47.28 sec
Sample gain: 1.0
Background collected on: Fri Jul 19 09:31:26 2024 (GMT+08:00);
Number of background scans: 32
Background gain: 1.0
Sample spacing:  1.000
Number of scan points: 16672
Resolution points: 8192
Number of FFT points: 65536
Apodization: N-B strong;
Phase correction: Mertz;
Laser frequency: 15798.3 cm-1
Number of rejected sample scans: 0
Number of rejected background scans: 0
Bench serial number: AUP1200105;
##RESOLUTION=4.000
##XUNITS=1/CM
##YUNITS=ABSORBANCE
##FIRSTX=400.163452
##LASTX=4000.187744
##FIRSTY=0.040334
##MAXX=4000.187744
##MINX=400.163452
##MAXY=1.430335
##MINY=-0.019891
##XFACTOR=1.000000
##YFACTOR=1.000000E-008
##NPOINTS=7468
##DELTAX=0.482125
##ZPD=8192
##XYDATA=(X++(Y..Y))
400.163 4033425 3962420 3899777 3853557 3827593 3820703 3828292 3844440 
404.020 3864324 3885565 3908586 3935850 3970352 4013950 4066136 4123369 
407.877 4179294 4225621 4253503 4255519 4227384 4169445 4087305 3991180 
411.734 3894241 3810352 3751388 3725277 3734481 3775769 3841075 3919346 
415.591 3999022 4070591 4128495 4171991 4204524 4232158 4261200 4295922 
419.448 4337087 4381764 4424248 4458173 4478668 4483862 4475471 4458003 
423.305 4437127 4417724 4402445 4391309 4382182 4372221 4359370 4343564 
427.162 4327002 4313630 4307886 4313285 4331374 4361070 4398956 4439911 
431.019 4478368 4509512 4530266 4539766 4539748 4533373 4524331 4515658 
434.876 4508880 4503704 4498372 4490617 4478751 4462539 4443478 4424331 
438.733 4408242 4397635 4393357 4394414 4398216 4401387 4400620 4393580 
442.590 4379275 4358290 4332395 4304165 4276341 4251197 4230099 4213127 
446.447 4199039 4185641 4170351 4151089 4126973 4098732 4068534 4039305 
450.304 4013835 3993882 3979700 3970096 3962900 3955669 3946456 3934228 
454.161 3919056 3902021 3885033 3870645 3861705 3860971 3870457 3890656 
458.017 3919977 3954602 3988989 4017048 4033647 4035980 4024303 4001709 
461.874 3973063 3943427 3916615 3894436 3876957 3863154 3852138 3843990 
465.731 3840012 3842279 3852662 3871911 3899152 3931852 3966576 3999832 
469.588 4028954 4052632 4070897 4084886 4096173 4106261 4116099 4125795 
473.445 4134640 4141282 4144115 4141837 4133964 4121225 4105660 4090386 
477.302 4078911 4074398 4078863 4092769 4115039 4143464 4175408 4208519 
481.159 4241260 4273102 4304425 4336224 4369702 4405908 4445520 4488636 
485.016 4534744 4582757 4631126 4678148 4722235 4762295 4798070 4830267 
488.873 4860592 4891579 4926302 4968098 5020129 5085012 5164445 5258828 
492.730 5367131 5486981 5615085 5747961 5882668 6017412 6151651 6285716 
496.587 6419930 6553669 6684634 6808746 6920674 7014782 7086221 7131596 
500.444 7149207 7138816 7101113 7037430 6949705 6840727 6714428 6575921 
504.301 6431030 6285518 6144063 6009575 5882986 5763558 5649747 5539969 
508.158 5433282 5329568 5229372 5133570 5043059 4958670 4881265 4811790 
512.015 4751249 4700409 4659341 4627092 4601614 4580167 4560054 4539476 
515.871 4518093 4497088 4478593 4464817 4456991 4454786 4456165 4457948 
519.728 4456692 4449695 4435679 4415026 4389440 4361275 4332688 4304949 
523.585 4278071 4250893 4221500 4187956 4149032 4104681 4056169 4005702 
527.442 3955744 3908289 3864231 3823240 3784110 3745382 3706126 3666380 
531.299 3627140 3589861 3555608 3524400 3494898 3464732 3431311 3392874 
535.156 3349255 3302177 3254811 3210871 3173503 3144406 3123440 3108833 
539.013 3097754 3087080 3074050 3056692 3033945 3005704 2972745 2936638 
542.870 2899661 2864575 2834140 2810637 2795228 2787539 2785637 2786390 
546.727 2786204 2781873 2771312 2753997 2730900 2704049 2675856 2648459 
550.584 2623163 2600327 2579468 2559637 2539920 2519825 2499543 2479891 
554.441 2462110 2447452 2436798 2430304 2427353 2426670 2426646 2425732 
558.298 2422830 2417488 2409923 2400875 2391343 2382241 2374231 2367574 
562.155 2362166 2357630 2353520 2349476 2345352 2341250 2337464 2334314 
566.012 2332008 2330459 2329364 2328226 2326647 2324568 2322391 2320882 
569.869 2320922 2323029 2327006 2331793 2335664 2336747 2333710 2326291 
573.725 2315490 2303346 2292177 2283814 2278966 2276992 2276188 2274521 
577.582 2270402 2263335 2254087 2244486 2236811 2233136 2234822 2242268 
581.439 2254990 2271808 2291225 2311602 2331405 2349308 2364347 2376079 
585.296 2384621 2390696 2395393 2399902 2405099 2411250 2417935 2424175 
589.153 2428745 2430610 2429214 2424681 2417766 2409631 2401621 2394963 
593.010 2390615 2389118 2390536 2394406 2399782 2405330 2409581 2411242 
596.867 2409600 2404733 2397595 2389825 2383247 2379378 2378923 2381568 
600.724 2386062 2390673 2393772 2394427 2392720 2389730 2387135 2386587 
604.581 2389055 2394432 2401482 2408234 2412663 2413388 2410254 2404428 
608.438 2398113 2393878 2393864 2399198 2409749 2424263 2440858 2457630 
612.295 2473077 2486335 2497089 2505371 2511339 2515173 2517163 2517861 
616.152 2518157 2519206 2522158 2527834 2536476 2547656 2560521 2574169 
620.009 2588010 2602044 2616786 2633082 2651774 2673444 2698305 2726312 
623.866 2757269 2791000 2827493 2867053 2910499 2959562 3017127 3087344 
627.723 3175151 3285123 3419716 3577329 3750819 3927102 4088382 4215017 
631.579 4289480 4300418 4245429 4131788 3974696 3793850 3609341 3438158 
635.436 3292017 3176754 3092944 3037407 3004836 2989325 2985467 2989013 
639.293 2997104 3008195 3021786 3037965 3056963 3078700 3102574 3127437 
643.150 3151818 3174330 3194040 3210706 3224799 3237314 3249478 3262472 
647.007 3277231 3294415 3314368 3337205 3362759 3390646 3420310 3451182 
650.864 3482898 3515458 3549222 3584654 3621937 3660480 3698719 3734222 
654.721 3764270 3786659 3800502 3806651 3807621 3806933 3808164 3814058 
658.578 3825954 3843699 3866058 3891372 3918195 3945711 3973845 4003130 
662.435 4034392 4068480 4106026 4147342 4192250 4240162 4290091 4340797 
666.292 4391075 4440106 4487679 4534292 4581015 4629054 4679367 4732303 
670.149 4787649 4844853 4903575 4964081 5027445 5095390 5169746 5251878 
674.006 5342231 5440094 5543843 5651297 5760127 5868108 5973152 6073179 
677.863 6166060 6249588 6321796 6381269 6427535 6461110 6483336 6495979 
681.720 6500762 6499164 6492343 6481433 6467908 6453817 6441812 6434861 
685.577 6435768 6446711 6468881 6502452 6546714 6600474 6662398 6731327 
689.433 6806448 6887366 6974117 7067146 7167293 7275747 7394024 7523872 
693.290 7667174 7825816 8001528 8195768 8409494 8642986 8895695 9166105 
697.147 9451883 9750046 10057402 10370987 10688409 11008006 11328729 
700.522 11649903 11970811 12290476 12607619 12920874 13229229 13532297 
703.897 13830712 14125954 14420202 14715846 15015160 15320019 15631893 
707.272 15951957 16281445 16621986 16975948 17346742 17739010 18158782 
710.647 18613676 19112826 19666908 20288002 20989510 21785920 22692536 
714.021 23725062 24899070 26229166 27728034 29405290 31266258 33310932 
717.396 35533080 37919804 40451556 43102124 45838940 48622184 51403116 
720.771 54120864 56698644 59041272 61036324 62562408 63505636 63782056 
724.146 63358956 62265868 60589908 58457176 56008672 53378560 50680132 
727.521 47999576 45395932 42904820 40543724 38317444 36222804 34251960 
730.896 32394450 30638286 28970548 27377808 25846822 24365582 22924200 
734.270 21515736 20136630 18786536 17467922 16185409 14945029 13753641 
737.645 12618265 11545537 10541158 9609481 8753256 7973505 7269721 6639997 
741.502 6081460 5590219 5161516 4789763 4468602 4191187 3950638 3740604 
745.359 3555769 3392124 3247003 3118728 3006206 2908486 2824434 2752763 
749.216 2692116 2641285 2599336 2565631 2539745 2521330 2510039 2505506 
753.073 2507423 2515537 2529603 2549275 2573910 2602452 2633522 2665556 
756.930 2697082 2726978 2754556 2779458 2801479 2820403 2835930 2847869 
760.787 2856416 2862413 2867443 2873594 2883089 2897673 2918254 2944779 
764.644 2976417 3011996 3050410 3090918 3133130 3176786 3221457 3266330 
768.501 3310198 3351691 3389584 3423027 3451678 3475586 3494959 3509954 
772.358 3520689 3527278 3530077 3529837 3527785 3525475 3524507 3526274 
776.214 3531873 3542044 3557448 3578829 3607095 3643198 3687872 3741289 
780.071 3802866 3871335 3945090 4022714 4103537 4187947 4277395 4374095 
783.928 4480476 4598697 4730279 4876080 5036511 5211861 5402596 5609511 
787.785 5833518 6075196 6334244 6608648 6894123 7183610 7467094 7731746 
791.642 7962557 8143458 8258940 8295993 8246204 8107437 7884945 7591363 
795.499 7245644 6870951 6491920 6131843 5810101 5540411 5329993 5179608 
799.356 5084592 5036328 5024208 5037436 5066597 5104640 5147150 5192069 
803.213 5239085 5288679 5341394 5397287 5455801 5515866 5576167 5635499 
807.070 5692969 5747992 5800241 5849441 5895300 5937376 5975167 6008246 
810.927 6036367 6059543 6078034 6092398 6103345 6111720 6118422 6124340 
814.784 6130220 6136540 6143406 6150501 6157209 6162807 6166789 6169145 
818.641 6170476 6171957 6175062 6181219 6191497 6206426 6226036 6249944 
822.498 6277635 6308561 6342225 6378147 6415903 6455136 6495692 6537825 
826.355 6582156 6629671 6681377 6737943 6799427 6865232 6934341 7005786 
830.212 7079109 7154700 7233669 7317487 7407336 7503596 7605625 7711927 
834.068 7820713 7930418 8040172 8149837 8259653 8369758 8479644 8587959 
837.925 8692705 8791652 8882890 8965233 9038360 9102583 9158552 9206909 
841.782 9248175 9282787 9311221 9334198 9352650 9367564 9379737 9389588 
845.639 9397101 9401909 9403604 9402025 9397443 9390614 9382612 9374646 
849.496 9367809 9362894 9360434 9360706 9363864 9370061 9379461 9392246 
853.353 9408593 9428543 9452053 9478988 9509274 9543058 9580901 9623889 
857.210 9673601 9731904 9800636 9881275 9974626 10080887 10199872 10331549 
861.067 10476618 10636933 10815746 11017370 11246835 11509148 11808894 
864.442 12149922 12535290 12967390 13447994 13978103 14557417 15183714 
867.817 15852043 16553986 17277372 18006132 18720746 19398964 20016952 
871.191 20550844 20978578 21281994 21448774 21473840 21359792 21116270 
874.566 20758150 20303286 19770308 19176940 18539178 17871190 17185636 
877.941 16494070 15807025 15133889 14482512 13858910 13267216 12709922 
881.316 12188362 11703278 11255243 10844683 10471797 10136204 9836747 
884.691 9571396 9337559 9132402 8953312 8798158 8665224 8553092 8460238 
888.548 8384872 8324869 8278008 8242292 8216288 8199255 8191035 8191720 
892.405 8201255 8219070 8243975 8274308 8308226 8344015 8380326 8416157 
896.262 8450590 8482520 8510390 8532152 8545551 8548553 8539875 8519320 
900.118 8487857 8447300 8399688 8346721 8289231 8227008 8159037 8084018 
903.975 8000917 7909483 7810458 7705451 7596680 7486491 7377051 7270138 
907.832 7167122 7069032 6976668 6890628 6811309 6738844 6673023 6613367 
911.689 6559160 6509652 6464157 6422209 6383604 6348407 6316930 6289658 
915.546 6267201 6250170 6239111 6234380 6236115 6244212 6258404 6278402 
919.403 6304011 6335250 6372330 6415529 6465039 6520787 6582324 6648933 
923.260 6719686 6793701 6870243 6948772 7028895 7110255 7192415 7274839 
927.117 7357010 7438486 7519103 7598918 7678085 7756675 7834466 7910923 
930.974 7985251 8056690 8124812 8189741 8252116 8312903 8372971 8432721 
934.831 8491799 8549225 8603641 8653773 8698890 8739004 8774826 8807436 
938.688 8837822 8866487 8893283 8917560 8938583 8955996 8970290 8982950 
942.545 8996303 9013170 9036225 9067550 9108380 9158954 9218844 9287256 
946.402 9363378 9446640 9536794 9633810 9737673 9848089 9964341 10085234 
950.259 10209213 10334608 10460041 10584813 10709219 10834647 10963458 
953.633 11098555 11242782 11398285 11566103 11745983 11936709 12136600 
957.008 12344354 12559497 12782726 13015577 13259862 13516754 13786173 
960.383 14066312 14353850 14644532 14933941 15218283 15494865 15762211 
963.758 16019735 16267313 16504803 16731729 16947140 17149718 17337980 
967.133 17510454 17665856 17803178 17921870 18021790 18103274 18167054 
970.508 18214058 18245258 18261456 18263180 18250700 18224092 18183398 
973.882 18128646 18059798 17976628 17878600 17764790 17634062 17485334 
977.257 17317900 17131736 16927642 16707107 16472198 16225275 15968803 
980.632 15705240 15436994 15166369 14895415 14625897 14359109 14095877 
984.007 13836713 13582009 13332291 13088389 12851450 12622857 12404045 
987.382 12196350 12001048 11819347 11652604 11502282 11369969 11256975 
990.756 11164124 11091586 11038792 11004776 10988414 10988846 11005507 
994.131 11038072 11086129 11148930 11225288 11313725 11412936 11522201 
997.506 11641661 11772324 11915617 12072861 12244801 12431323 12631765 
1000.881 12845352 13071905 13312326 13568816 13844749 14144391 14472479 
1004.256 14834075 15234454 15679163 16173965 16724738 17337152 18016424 
1007.630 18767308 19594440 20503158 21500540 22596340 23803356 25136822 
1011.005 26612538 28243848 30037466 31988656 34076200 36257824 38466968 
1014.380 40612280 42581236 44249232 45494272 46215128 46348652 45880924 
1017.755 44848284 43328728 41426904 39258044 36934508 34556960 32209634 
1021.130 29958924 27853928 25928072 24201148 22681562 21368522 20254062 
1024.505 19325054 18564810 17954558 17474570 17105108 16827262 16623698 
1027.880 16479297 16381578 16320984 16290630 16285916 16303816 16342163 
1031.255 16399069 16472602 16560735 16661449 16772893 16893602 17022466 
1034.630 17158792 17302134 17452260 17608958 17771940 17940596 18113776 
1038.006 18289668 18465764 18638982 18805990 18963512 19108664 19239048 
1041.381 19352760 19448304 19524548 19580818 19617098 19634178 19633758 
1044.756 19618190 19589924 19550968 19502284 19443748 19374506 19293714 
1048.131 19201440 19099390 18990968 18880964 18774526 18676164 18588992 
1051.507 18514358 18452108 18401230 18360656 18329780 18308816 18298658 
1054.882 18300622 18316158 18346628 18393450 18458184 18542666 18648950 
1058.257 18779196 18935226 19118350 19329160 19567560 19833058 20125086 
1061.632 20443148 20787094 21156968 21552982 21975344 22424172 22899526 
1065.008 23401482 23930252 24486200 25069954 25682384 26324586 26997990 
1068.383 27704248 28445334 29223304 30040168 30897552 31796450 32737098 
1071.758 33719024 34741232 35802524 36901796 38038184 39210980 40419368 
1075.133 41662084 42937012 44241120 45570416 46920176 48285116 49659588 
1078.509 51037628 52412736 53778036 55126272 56450356 57743736 59001200 
1081.884 60219200 61395996 62531520 63627040 64684976 65708620 66702364 
1085.259 67671528 68621880 69559088 70487656 71410128 72326536 73234672 
1088.634 74130640 75009904 75867752 76699504 77499856 78261992 78977000 
1092.010 79633784 80219888 80722808 81131408 81436864 81632536 81713704 
1095.385 81676712 81518592 81237152 80831472 80302232 79651872 78884112 
1098.760 78003360 77014032 75920608 74728096 73442752 72072640 70628016 
1102.135 69120944 67564880 65974064 64363460 62748860 61147112 59576440 
1105.510 58056264 56606792 55248316 54000520 52881728 51908092 51092888 
1108.886 50445680 49971368 49669144 49531784 49545184 49688496 49934820 
1112.261 50252624 50607656 50965144 51292032 51558964 51741828 51822596 
1115.636 51789604 51637276 51365308 50977660 50481396 49885584 49200372 
1119.011 48436444 47604356 46714448 45776552 44799740 43792088 42760688 
1122.387 41711692 40650584 39582480 38512468 37445732 36387548 35343064 
1125.762 34317064 33313796 32336852 31389218 30473256 29590800 28743034 
1129.137 27930552 27153354 26410946 25702492 25027036 24383572 23770950 
1132.512 23187700 22631902 22101044 21592134 21102120 20628150 20168056 
1135.888 19720442 19284626 18860332 18447302 18045108 17653020 17270116 
1139.263 16895462 16528158 16167440 15812510 15462561 15116709 14774333 
1142.638 14435290 14100197 13770519 13448203 13135248 12833016 12541798 
1146.013 12260645 11987736 11720888 11458243 11198796 10942588 10690515 
1149.389 10444003 10204520 9973297 9751204 9538753 9336206 9143671 8961008 
1153.246 8787883 8623686 8467710 8319255 8177947 8043956 7917889 7800816 
1157.104 7693852 7597909 7513439 7440420 7378433 7326897 7285245 7253142 
1160.961 7230527 7217702 7215363 7224681 7247403 7285865 7342911 7421675 
1164.818 7525275 7656374 7816832 8007412 8227519 8475170 8746771 9037279 
1168.676 9340099 9647439 9950692 10241000 10509947 10750223 10955998 
1172.051 11123162 11249215 11333094 11374897 11375686 11337416 11262894 
1175.426 11155662 11019869 10860034 10680755 10486541 10281639 10070062 
1178.802 9855651 9642124 9433054 9231894 9041855 8865839 8706433 8565924 
1182.659 8446252 8348961 8275036 8224734 8197455 8191775 8205630 8236760 
1186.516 8283162 8343455 8417070 8504166 8605260 8720912 8851374 8996402 
1190.374 9155343 9327377 9511637 9707445 9914222 10131408 10358291 10593941 
1194.231 10837232 11086968 11342102 11601868 11865901 12134176 12406918 
1197.606 12684503 12967293 13255595 13549584 13849355 14154865 14466025 
1200.982 14782746 15104970 15432806 15766570 16106749 16453980 16808914 
1204.357 17172068 17543868 17924524 18314222 18713264 19122198 19541894 
1207.732 19973584 20418738 20878890 21355460 21849634 22362312 22894146 
1211.107 23445700 24017628 24610790 25226348 25865736 26530460 27221900 
1214.483 27941036 28688366 29463896 30267320 31098178 31956130 32840926 
1217.858 33752360 34690032 35653140 36640428 37650220 38680868 39731024 
1221.233 40799984 41887836 42995276 44123324 45273164 46445912 47642748 
1224.608 48865160 50115008 51394568 52706248 54052156 55433792 56851892 
1227.984 58306520 59797500 61324800 62888772 64489864 66128380 67803672 
1231.359 69513984 71256136 73025664 74817008 76623584 78437456 80248912 
1234.734 82046000 83814432 85538080 87200000 88783560 90273696 91657248 
1238.109 92923048 94061256 95063016 95920088 96625240 97172656 97558816 
1241.485 97783080 97848208 97760440 97529712 97169032 96694152 96122200 
1244.860 95470440 94754928 93989560 93185792 92353312 91500952 90637944 
1248.235 89774480 88921912 88091896 87295560 86542240 85838952 85190352 
1251.610 84599056 84066472 83593288 83179864 82826088 82530664 82290264 
1254.986 82098720 81946312 81819728 81702392 81575624 81420072 81217400 
1258.361 80951784 80610744 80185584 79670840 79063832 78363816 77571952 
1261.736 76691200 75726840 74686552 73580208 72419232 71215616 69981024 
1265.111 68726224 67460984 66194380 64934836 63690396 62468244 61274380 
1268.487 60113304 58987832 57899512 56849092 55837112 54864140 53930564 
1271.862 53036220 52179872 51358932 50569676 49807876 49069572 48351648 
1275.237 47652216 46970288 46305244 45656264 45021836 44399792 43787552 
1278.612 43182540 42582600 41986152 41392092 40799676 40208316 39617516 
1281.988 39026888 38436292 37845712 37255180 36664516 36073280 35480696 
1285.363 34885876 34288064 33686928 33082622 32475644 31866518 31255532 
1288.738 30642586 30027360 29409504 28789062 28166608 27543226 26920264 
1292.113 26299002 25680440 25065228 24453918 23847192 23246158 22652374 
1295.489 22067722 21494164 20933502 20387378 19857478 19345762 18854756 
1298.864 18387618 17947776 17538380 17161654 16818268 16507089 16225260 
1302.239 15968679 15732546 15511878 15301923 15098359 14897208 14694943 
1305.614 14488573 14275745 14055049 13826101 13589646 13347295 13101307 
1308.990 12854151 12608230 12365613 12127931 11896423 11671946 11455024 
1312.365 11245978 11044842 10851495 10665575 10486481 10313349 10145022 
1315.740 9980094 9817034 9654419 9491216 9326971 9161954 8997049 8833440 
1319.597 8672307 8514483 8360249 8209526 8062104 7918010 7777821 7642760 
1323.455 7514581 7395338 7287121 7191872 7111359 7047331 7001721 6976720 
1327.312 6974937 6999328 7053166 7140013 7263671 7428212 7637768 7896166 
1331.170 8206257 8569249 8983878 9445874 9947824 10479285 11027296 11577127 
1335.027 12112969 12618789 13079074 13479646 13808416 14056055 14216505 
1338.402 14287321 14269552 14167541 13988350 13741069 13436082 13084306 
1341.778 12696604 12283318 11853895 11416674 10978804 10546201 10123624 
1345.153 9714761 9322453 8948839 8595498 8263546 7953645 7666012 7400461 
1349.010 7156419 6933100 6729571 6544900 6378181 6228555 6095196 5977326 
1352.868 5874311 5785638 5711122 5650783 5604916 5573944 5558350 5558618 
1356.725 5575273 5608933 5660512 5731223 5822728 5936992 6076210 6242751 
1360.583 6438968 6667160 6929472 7227617 7562676 7934686 8342309 8782587 
1364.440 9250855 9740885 10245267 10755838 11264300 11762585 12243097 
1367.815 12698808 13123101 13509630 13852379 14145832 14385454 14568366 
1371.190 14693822 14763491 14781263 14752643 14683947 14581448 14450711 
1374.566 14296246 14121464 13928810 13719960 13496117 13258140 13006815 
1377.941 12743041 12468038 12183529 11891833 11595728 11298280 11002447 
1381.316 10710888 10425717 10148611 9880885 9623830 9378785 9147335 8931135 
1385.174 8731776 8550552 8388380 8245685 8122627 8019263 7935703 7872201 
1389.031 7829114 7806759 7805317 7824746 7864851 7925581 8007268 8110855 
1392.888 8237968 8390894 8572401 8785430 9032946 9317654 9641865 10007284 
1396.746 10414784 10864119 11353812 11881154 12442531 13034011 13652207 
1400.121 14295030 14962336 15655933 16379267 17136452 17930926 18763802 
1403.496 19632136 20527264 21433498 22327388 23177954 23948034 24596740 
1406.872 25083002 25369660 25427500 25238832 24799724 24120690 23225818 
1410.247 22150264 20936712 19631216 18279286 16922482 15596056 14327799 
1413.622 13137674 12038467 11036737 10134050 9328246 8614432 7985899 7434896 
1417.479 6953098 6532269 6164634 5843296 5562332 5316936 5103234 4917994 
1421.337 4758425 4621965 4506313 4409447 4329829 4266374 4218532 4186064 
1425.194 4168885 4166839 4179652 4206830 4247793 4301919 4368695 4447714 
1429.052 4538671 4641315 4755317 4880181 5015044 5158668 5309347 5465017 
1432.909 5623367 5782143 5939304 6093237 6242762 6387065 6525542 6657652 
1436.767 6782821 6900412 7009846 7110699 7202789 7286310 7361805 7430051 
1440.624 7492073 7548986 7601945 7652136 7700748 7749046 7798432 7850394 
1444.481 7906565 7968591 8037960 8115815 8202716 8298545 8402435 8512908 
1448.339 8628114 8746070 8864997 8983316 9099620 9212654 9320914 9422739 
1452.196 9516255 9599662 9671397 9730406 9776171 9808638 9828130 9835127 
1456.054 9830173 9813931 9787131 9750631 9705277 9651908 9591120 9523314 
1459.911 9448685 9367382 9279704 9186258 9088081 8986700 8884055 8782385 
1463.769 8684236 8592311 8509476 8438742 8383184 8345817 8329411 8336250 
1467.626 8367849 8424759 8506402 8611078 8736034 8877610 9031419 9192273 
1471.483 9354308 9510887 9654734 9778134 9873413 9933344 9951701 9923659 
1475.341 9846113 9717844 9539538 9313738 9044628 8737770 8399872 8038447 
1479.198 7661496 7277200 6893450 6517371 6154882 5810285 5486236 5183884 
1483.056 4903282 4643895 4404963 4185803 3985767 3804111 3639881 3491742 
1486.913 3358241 3237776 3128999 3030889 2942903 2864853 2796841 2739068 
1490.771 2691751 2655058 2629083 2613880 2609473 2615935 2633384 2662127 
1494.628 2702696 2755977 2823233 2906191 3007111 3128941 3275521 3451860 
1498.485 3664184 3919553 4225111 4586403 5005385 5478224 5993501 6531443 
1502.343 7064555 7559787 7982044 8298515 8483137 8520517 8408324 8157707 
1506.200 7791552 7340671 6839157 6319590 5809484 5329339 4892306 4505040 
1510.058 4169193 3882980 3642529 3442845 3278504 3144106 3034485 2945005 
1513.915 2871640 2811124 2760933 2719251 2684799 2656683 2634331 2617197 
1517.772 2604886 2597001 2593183 2593153 2596526 2602841 2611549 2621879 
1521.630 2633055 2644313 2655065 2664837 2673359 2680383 2685613 2688657 
1525.487 2689075 2686455 2680600 2671496 2659337 2644428 2626931 2606835 
1529.345 2583878 2557700 2528046 2494958 2458849 2420595 2381330 2342242 
1533.202 2304399 2268600 2235346 2204922 2177462 2153080 2131814 2113689 
1537.060 2098610 2086311 2076356 2068236 2061401 2055392 2049917 2044838 
1540.917 2040151 2035983 2032433 2029613 2027571 2026317 2025906 2026344 
1544.774 2027721 2030168 2033811 2038771 2045001 2052266 2060175 2068111 
1548.632 2075512 2081961 2087370 2092072 2096671 2101935 2108534 2116846 
1552.489 2126900 2138464 2151162 2164652 2178764 2193387 2208448 2223771 
1556.347 2239031 2253830 2267812 2280909 2293375 2305823 2319062 2333861 
1560.204 2350867 2370494 2393048 2418807 2448122 2481337 2518674 2560061 
1564.062 2604970 2652554 2701888 2752265 2803535 2856260 2911679 2971498 
1567.919 3037570 3111757 3195742 3291016 3398932 3520723 3657379 3809597 
1571.776 3977599 4161071 4359032 4569781 4790697 5017990 5246356 5468780 
1575.634 5676692 5860569 6010902 6119298 6179565 6188258 6144764 6051064 
1579.491 5911315 5731468 5518897 5282069 5030077 4772144 4516921 4271900 
1583.349 4042982 3834163 3647739 3484387 3343551 3223849 3123218 3039145 
1587.206 2968800 2909251 2857614 2811436 2768895 2729012 2691594 2656961 
1591.063 2625583 2597770 2573395 2552020 2532987 2515821 2500455 2487361 
1594.921 2477410 2471777 2471543 2477514 2490047 2509063 2534136 2564605 
1598.778 2599669 2638591 2680736 2725747 2773540 2824338 2878608 2936900 
1602.636 2999599 3066885 3138537 3214112 3293049 3374726 3458782 3544930 
1606.493 3632931 3722374 3812556 3902471 3990825 4076272 4157548 4233564 
1610.351 4303404 4366173 4420859 4466140 4500372 4521688 4528188 4518272 
1614.208 4490934 4446066 4384599 4308623 4221135 4125838 4026622 3927154 
1618.065 3830602 3739415 3655329 3579555 3512751 3455252 3406922 3367292 
1621.923 3335572 3310777 3291971 3278416 3269639 3265412 3265570 3269810 
1625.780 3277512 3287764 3299462 3311496 3323047 3333611 3343106 3351713 
1629.638 3359714 3367380 3374892 3382307 3389663 3397013 3404451 3412156 
1633.495 3420376 3429436 3439639 3451328 3464634 3479446 3495329 3511519 
1637.353 3527135 3541393 3554025 3565294 3576097 3587564 3600696 3615937 
1641.210 3633020 3651049 3668938 3685876 3701739 3717195 3733449 3751811 
1645.067 3773249 3798034 3825793 3855667 3886745 3918279 3949902 3981528 
1648.925 4013230 4045177 4077588 4110913 4145800 4183211 4224191 4269574 
1652.782 4319818 4374853 4434283 4497681 4564924 4636315 4712395 4793782 
1656.640 4880807 4973363 5071107 5173675 5281046 5393645 5512304 5637887 
1660.497 5770872 5911287 6058534 6211855 6370665 6534844 6704719 6880739 
1664.354 7063101 7251444 7444744 7641583 7840547 8040496 8240840 8441383 
1668.212 8642022 8842590 9042788 9242416 9441572 9641016 9842071 10046506 
1672.069 10256097 10472321 10696115 10927945 11167900 11415923 11671860 
1675.445 11935509 12206466 12484229 12768152 13057669 13352360 13651973 
1678.820 13956231 14264607 14576265 14890124 15205278 15521386 15838936 
1682.195 16159096 16483290 16812382 17146174 17483274 17821686 18159762 
1685.570 18497224 18835760 19178954 19531536 19898324 20283528 20690398 
1688.946 21121440 21578988 22065788 22585136 23140710 23736090 24374556 
1692.321 25059200 25793528 26582002 27430328 28344988 29332196 30396706 
1695.696 31541156 32766888 34075640 35472220 36966060 38571668 40306728 
1699.071 42188772 44231732 46443544 48826272 51378768 54100912 56997300 
1702.447 60078508 63359316 66854452 70573520 74517176 78675648 83029912 
1705.822 87554112 92218016 96987184 101821760 106674040 111487176 116196176 
1709.197 120730720 125018728 128988672 132571032 135699376 138313824 
1712.090 140367504 141834560 142714992 143033488 142831552 142156608 
1714.983 141053184 139560048 137713616 135553760 133128272 130491904 
1717.876 127700952 124805752 121845064 118844768 115820440 112782560 
1720.769 109740960 106707144 103694032 100714072 97777256 94890240 92056784 
1724.145 89279040 86558936 83898488 81299648 78763360 76289120 73875072 
1727.520 71518944 69218992 66974588 64786184 62654156 60577600 58553380 
1730.895 56575984 54638464 52733988 50857336 49006040 47180536 45383348 
1734.270 43617880 41886900 40191776 38532172 36906548 35312824 33749252 
1737.646 32214800 30709482 29234180 27790618 26381200 25008952 23677384 
1741.021 22390492 21152256 19966348 18835660 17761950 16745771 15786844 
1744.396 14884192 14036867 13243969 12504674 11817971 11182276 10595302 
1747.771 10053983 9554982 9094920 8670835 8280199 7920795 7590403 7286717 
1751.629 7007225 6749502 6511409 6291282 6087887 5900227 5727301 5567819 
1755.486 5420291 5283273 5155507 5036146 4924705 4820856 4724165 4633844 
1759.344 4548908 4468281 4391182 4317151 4246162 4178371 4113857 4052362 
1763.201 3993414 3936356 3880749 3826469 3773654 3722684 3673789 3626949 
1767.058 3581953 3538493 3496463 3456082 3417876 3382407 3350011 3320551 
1770.916 3293425 3267697 3242448 3217052 3191345 3165381 3139461 3113928 
1774.773 3088928 3064577 3041030 3018553 2997423 2977842 2959676 2942483 
1778.631 2925639 2908533 2890993 2873300 2856207 2840517 2826763 2814773 
1782.488 2803806 2792622 2779968 2765049 2747662 2728298 2707941 2687689 
1786.345 2668497 2651088 2635806 2622669 2611445 2601497 2591943 2581735 
1790.203 2569862 2555727 2539374 2521568 2503560 2486681 2471754 2458814 
1794.060 2447022 2435005 2421437 2405562 2387579 2368497 2349717 2332575 
1797.918 2317785 2305217 2294098 2283368 2272186 2260262 2248001 2236302 
1801.775 2226218 2218631 2213855 2211576 2210975 2210914 2210207 2208061 
1805.633 2204109 2198537 2191959 2185101 2178522 2172328 2166138 2159242 
1809.490 2150907 2140843 2129265 2117053 2105330 2094989 2086315 2078791 
1813.347 2071325 2062776 2052556 2041093 2029964 2021392 2017632 2020206 
1817.205 2029261 2043549 2060883 2078700 2094921 2108317 2118514 2125680 
1821.062 2130061 2131580 2129880 2124496 2115373 2103002 2088671 2074063 
1824.920 2060728 2049553 2040218 2031258 2020369 2005222 1984245 1957327 
1828.777 1926108 1893569 1863341 1838626 1821216 1810926 1805660 1802037 
1832.635 1796343 1785616 1768400 1744922 1716899 1686860 1657337 1630312 
1836.492 1606821 1586876 1569806 1554470 1539737 1524756 1509237 1493544 
1840.349 1478685 1466033 1456773 1451512 1449549 1448965 1446719 1439485 
1844.207 1424689 1401211 1370004 1333694 1295821 1259712 1227670 1200614 
1848.064 1178157 1159311 1143095 1129098 1117389 1108405 1102333 1099014 
1851.922 1097813 1097695 1097744 1097170 1095538 1092491 1087854 1081688 
1855.779 1074566 1067765 1063174 1062852 1068186 1079045 1093350 1107302 
1859.636 1116435 1117049 1107626 1089280 1065616 1041460 1021428 1008579 
1863.494 1003889 1006431 1014185 1024834 1036442 1047425 1056428 1062084 
1867.351 1063073 1058488 1048377 1034103 1018062 1003044 991277 983483 
1871.209 978824 975209 970432 962922 952595 940668 929077 919686 913451 
1875.548 910192 908886 907874 905573 900686 892324 880133 864358 846029 
1879.888 827060 810017 797549 791478 792090 797823 805845 812908 816986 
1884.228 818065 818243 820610 827705 839855 854672 867724 874140 870797 
1888.567 857835 838741 819325 805475 801107 806860 820205 836789 852377 
1892.907 864236 871956 876865 880964 885637 891055 896247 900077 901926 
1897.246 902485 903624 907561 915742 928224 943241 957912 969094 974649 
1901.586 973819 967574 957698 946007 933508 920067 904643 886165 864371 
1905.926 840511 817315 798357 786755 784082 789336 799311 809408 815171 
1910.265 813939 805833 793556 781645 774654 775668 785206 801183 819604 
1914.605 835995 846692 849944 845823 836337 824634 814306 808563 809504 
1918.944 817405 830225 843676 852000 849436 832249 800480 758765 715514 
1923.284 680775 662987 666270 688887 723887 761771 793867 815128 825385 
1927.624 828333 829243 832406 839367 849160 859947 870735 882842 899038 
1931.963 921943 951600 984172 1012454 1028526 1027030 1008183 978373 948442 
1936.303 930059 931517 955045 996488 1047224 1098243 1142850 1178958 1208643 
1940.642 1235985 1264654 1295901 1327528 1354970 1372880 1376775 1364298 
1944.500 1335924 1293900 1242817 1188188 1136471 1093574 1064411 1051121 
1948.357 1052485 1063887 1078115 1087294 1085010 1067578 1035002 989964 
1952.215 936472 878340 818252 757660 697664 639625 586091 540044 504507 
1956.554 481080 469664 467941 472727 480928 490832 502752 518659 540826 
1960.894 570988 608447 650362 691918 727965 753951 767437 768479 759163 
1965.233 742408 720906 696555 669855 641140 611738 585095 566386 561389 
1969.573 574521 605749 649739 696347 733220 750297 743321 715754 678777 
1973.913 647425 636728 657849 716140 810832 937272 1086854 1248294 1405787 
1978.252 1540573 1632453 1665198 1632573 1541888 1414915 1282891 1178764 
1982.110 1128021 1140442 1206286 1298835 1382222 1421781 1394904 1296418 
1985.967 1138923 947630 752039 578849 446762 364768 334249 351125 408079 
1990.307 495978 603947 719453 830246 925374 997787 1045146 1069183 1073014 
1994.646 1058467 1023840 964274 873798 749870 596654 426878 259890 117810 
1998.986 19520 -24435 -14536 38602 116525 198463 265973 306007 313746 292341 
2003.808 251713 207257 176684 177333 222129 316236 453721 619039 789181 
2008.147 940754 1055883 1127491 1159489 1164937 1160214 1158615 1166059 
2012.005 1178905 1185318 1170365 1120412 1028432 895499 730736 547959 362533 
2016.344 187880 33999 -92114 -185551 -242176 -257354 -227600 -151091 -31212 
2020.684 122637 294286 462070 601985 692815 719596 678732 577924 436720 
2025.023 281553 140216 34872 -22919 -35324 -16529 12484 30920 24915 -7019 
2029.845 -54714 -100268 -125384 -118236 -79136 -20090 39826 81597 93844 
2034.185 77338 42905 7221 -15531 -19055 -6545 11272 22469 19408 2134 -21291 
2039.489 -38737 -38145 -11999 40588 114922 203083 297144 390663 478559 
2043.828 556784 621042 667614 694744 705361 707816 715386 742349 798709 
2048.168 885489 992729 1101730 1191621 1246254 1259687 1236841 1190318 
2052.025 1135486 1084819 1044391 1013182 984262 949221 901886 841973 775394 
2056.365 712211 663077 635404 631083 646410 673169 702183 725729 740324 
2060.705 746762 749471 754200 766007 786729 814653 844503 868700 879492 
2065.044 871054 840670 790509 727127 660677 603416 566833 559262 584124 
2069.384 638408 713548 797090 875898 939242 981457 1003351 1010905 1013300 
2073.723 1019137 1033755 1057508 1085856 1111643 1127725 1129798 1117664 
2077.581 1095109 1068048 1042599 1022900 1010727 1005574 1006379 1012183 
2081.438 1022935 1038905 1059367 1081679 1100911 1110714 1105448 1082226 
2085.296 1042916 994208 946411 910671 895878 906284 940225 990829 1047919 
2089.635 1100545 1139612 1159572 1159145 1140891 1110543 1075307 1042973 
2093.493 1020322 1012538 1022118 1048357 1087515 1133056 1177198 1212453 
2097.350 1233488 1238188 1228445 1209192 1187320 1169283 1159459 1158724 
2101.208 1164158 1170272 1170710 1160888 1139583 1109870 1078241 1052724 
2105.065 1040055 1043602 1062053 1090233 1120788 1147074 1165323 1175857 
2108.922 1182524 1190795 1205459 1228415 1257925 1289195 1315720 1331592 
2112.780 1332705 1317538 1286917 1243007 1188316 1125474 1056973 985935 
2116.637 916101 852074 798578 759558 737135 731259 739559 758019 781967 
2120.977 806720 828071 842683 847714 841213 822130 790912 749529 701442 
2125.316 650734 601023 554336 510266 466155 417994 361851 295180 217871 
2129.656 132324 42355 -47108 -131435 -206303 -267692 -311479 -333818 -331696 
2133.996 -304044 -253651 -187438 -116314 -53138 -9576 6110 -8540 -50553 
2138.335 -111914 -182571 -251877 -311405 -355382 -381495 -390921 -388027 
2142.193 -379315 -372888 -376225 -394353 -427528 -470554 -513121 -543412 
2146.050 -551606 -534436 -497118 -453100 -419788 -413561 -443697 -509498 
2149.907 -600666 -700718 -792603 -864448 -911844 -939543 -958006 -981231 
2153.765 -1022024 -1090992 -1193708 -1330903 -1496564 -1675348 -1841878 
2157.140 -1960152 -1989092 -1893411 -1656481 -1292287 -846393 -385396 21620 
2160.998 321527 487420 519402 438590 277486 71670 -146859 -353405 -531944 
2165.337 -673989 -778755 -850603 -898625 -933591 -965830 -1002657 -1046649 
2169.195 -1095649 -1144794 -1189143 -1226917 -1259981 -1293374 -1331610 
2172.570 -1374955 -1416832 -1444398 -1441746 -1395835 -1301952 -1166836 
2175.945 -1008329 -850263 -715622 -620622 -570373 -560247 -578152 -609852 
2179.802 -643047 -670271 -689314 -702258 -712860 -723881 -734798 -741090 
2183.660 -734455 -705912 -648431 -560831 -449223 -327655 -215100 -130123 
2187.517 -86006 -86061 -122845 -181198 -243470 -295393 -330446 -349903 
2191.375 -359181 -363398 -362053 -349198 -315203 -253188 -163603 -57349 
2195.232 46938 129522 176844 187296 172604 152562 147738 170572 220863 
2199.572 285680 345603 382060 385548 358576 314631 272502 249815 256948 
2203.911 295392 357977 433149 509051 576452 630396 669593 694686 707254 
2208.251 708190 697913 676767 645887 607265 564405 522282 486538 462905 
2212.591 456096 468433 499236 543988 595625 645752 686620 712587 721472 
2216.930 713556 690895 656421 613119 564745 516301 474637 448218 445004 
2221.270 470494 525158 603375 694565 785821 865130 924551 961096 976622 
2225.609 975404 962079 940190 912055 879924 847000 818198 799452 796005 
2229.949 810295 840954 883040 929596 974214 1013087 1045457 1073332 1099227 
2234.289 1124550 1148390 1167720 1178648 1178482 1166953 1146712 1122506 
2238.146 1099383 1081550 1070741 1066463 1066535 1068446 1070080 1070723 
2242.003 1070690 1071349 1073938 1079084 1086436 1094618 1101247 1103898 
2245.861 1100403 1089831 1072609 1050604 1026622 1003674 984395 970041 
2249.718 960974 956693 956695 961126 971118 988458 1014977 1051580 1097492 
2254.058 1150442 1206853 1262935 1315565 1362796 1403578 1437352 1463346 
2257.915 1479971 1485399 1477906 1457211 1425222 1386007 1345431 1309684 
2261.773 1283751 1270334 1269283 1278008 1292688 1309664 1326491 1342551 
2265.630 1358833 1377052 1398716 1424228 1452890 1482992 1512718 1540480 
2269.488 1565625 1587952 1607732 1624846 1638734 1648473 1653156 1652619 
2273.345 1647845 1640948 1634822 1632395 1635837 1645959 1662282 1683126 
2277.202 1706232 1729299 1750506 1768476 1782503 1792617 1799473 1804409 
2281.060 1809408 1816612 1827832 1843849 1863868 1885603 1905369 1919375 
2284.917 1924619 1919891 1906221 1886525 1865102 1846277 1833369 1827832 
2288.775 1829021 1834505 1840471 1842899 1838533 1825365 1803456 1774500 
2292.632 1741683 1708638 1678706 1654194 1635737 1622640 1613055 1604767 
2296.490 1595910 1585141 1572072 1556965 1540547 1523901 1508464 1495793 
2300.347 1487720 1485727 1490604 1501808 1517154 1533190 1545887 1551761 
2304.204 1548992 1537832 1520720 1501037 1482257 1466637 1454944 1446654 
2308.062 1440633 1436170 1433405 1433300 1437062 1445462 1458162 1473650 
2311.919 1489809 1504560 1516621 1525824 1532960 1539337 1546270 1554647 
2315.777 1564961 1577291 1591648 1607892 1625854 1645303 1666145 1688954 
2319.634 1714974 1746596 1786348 1835788 1893940 1956001 2013234 2054380 
2323.491 2068218 2046691 1987411 1894535 1778030 1651499 1529190 1422952 
2327.349 1340244 1282813 1247521 1227963 1216759 1207753 1197260 1184327 
2331.206 1169967 1156065 1144276 1135532 1129896 1126978 1126312 1127781 
2335.064 1131651 1138294 1147906 1160303 1174617 1189488 1203419 1214745 
2338.921 1222431 1225852 1225156 1221115 1214938 1208131 1202036 1197784 
2342.779 1196036 1196816 1199742 1203887 1208190 1211482 1212714 1211296 
2346.636 1207068 1200485 1192626 1184945 1178970 1175921 1176374 1180074 
2350.493 1186059 1192867 1199079 1203598 1206037 1206671 1206145 1205232 
2354.351 1204437 1204068 1204038 1204340 1205100 1206690 1209521 1213894 
2358.208 1219638 1226048 1231971 1236044 1237080 1234499 1228410 1219420 
2362.066 1208542 1196648 1184314 1171795 1158978 1145731 1132115 1118543 
2365.923 1105839 1095057 1087306 1083509 1084285 1089716 1099512 1112899 
2369.781 1128819 1145946 1162796 1177948 1190190 1198765 1203502 1205011 
2373.638 1204492 1203503 1203573 1205736 1210385 1216971 1224333 1230933 
2377.495 1235344 1236623 1234290 1228542 1219816 1208694 1195885 1182195 
2381.353 1168789 1157358 1149922 1148605 1154906 1169077 1189928 1214636 
2385.210 1239744 1261700 1278130 1288067 1292243 1292312 1290122 1286864 
2389.068 1282917 1277886 1271257 1262967 1253808 1245376 1239387 1236998 
2392.925 1238250 1242014 1246350 1249323 1249784 1247634 1243940 1240165 
2396.782 1237489 1236348 1236098 1235503 1233250 1228712 1222113 1214530 
2400.640 1207491 1202060 1198607 1196368 1193726 1188884 1180311 1167498 
2404.497 1151162 1133098 1115795 1101759 1092948 1090250 1093168 1100191 
2408.355 1109048 1117313 1123095 1125435 1124384 1120871 1116299 1112089 
2412.212 1109322 1108445 1109378 1111693 1114825 1118145 1121029 1122725 
2416.070 1122366 1119062 1111968 1100777 1085778 1068038 1049113 1030807 
2419.927 1014739 1001792 992218 985540 981104 978148 976317 975498 975960 
2424.267 977824 981181 985691 990779 995747 1000052 1003417 1006036 1008388 
2428.606 1011139 1014915 1019782 1025220 1030083 1032622 1031126 1024317 
2432.464 1012078 995539 977190 960407 948568 944059 947535 957462 970425 
2436.803 981943 987794 985218 973981 956586 937792 923226 918001 925116 
2441.143 944613 973403 1006231 1037095 1061016 1075217 1079806 1077335 
2445.000 1071713 1066654 1064400 1065167 1067399 1068486 1066198 1059574 
2448.858 1049425 1037798 1027307 1019828 1015938 1014605 1013681 1010805 
2452.715 1004170 993307 978979 962785 946645 932125 920170 910936 904245 
2457.055 899529 896355 894297 892953 891880 890731 889345 887834 886676 
2461.394 886545 888051 891409 896192 901495 906042 908723 909041 907307 
2465.734 904585 902364 901889 903648 907222 911077 913144 911342 904333 
2470.073 892081 875872 858323 842594 831623 827286 829768 837503 847546 
2474.413 856422 861002 859624 852284 840789 828035 817163 810655 809655 
2478.753 813710 821234 829971 837652 842710 844663 844115 842464 841765 
2483.092 844101 851215 863973 882266 904586 928548 951111 969274 980853 
2487.432 984860 981816 973520 962517 951296 941777 934876 930637 928428 
2491.771 927484 927363 928017 929855 933218 938367 945101 952789 960707 
2496.111 968201 975041 981432 987917 994999 1002885 1011177 1018862 1024643 
2500.451 1027283 1026235 1021856 1015510 1009262 1005255 1004980 1008866 
2504.308 1016011 1024458 1031987 1036896 1038613 1038126 1037570 1039725 
2508.166 1046762 1059585 1077344 1097496 1116308 1130087 1135844 1132177 
2512.023 1119570 1099997 1076620 1052944 1032199 1017033 1009079 1009070 
2515.880 1016777 1031203 1050637 1072802 1095326 1115755 1132005 1142689 
2519.738 1147269 1146197 1140611 1132228 1123049 1114889 1109133 1106710 
2523.595 1108003 1112743 1120374 1129962 1140459 1150673 1159665 1166689 
2527.453 1171431 1173949 1174655 1174109 1172774 1170812 1168086 1164097 
2531.310 1158496 1151147 1142422 1133363 1125277 1119419 1116706 1117402 
2535.167 1121212 1127316 1134925 1143284 1151859 1160090 1167441 1173154 
2539.025 1176565 1177375 1176025 1173900 1173119 1175674 1182928 1194647 
2542.882 1209115 1223427 1234568 1240454 1240902 1237385 1232732 1229604 
2546.740 1229641 1232818 1237464 1241327 1242484 1240413 1235992 1231279 
2550.597 1228393 1228557 1231601 1236152 1240294 1242547 1242593 1241604 
2554.455 1241496 1244504 1252205 1264998 1282183 1302231 1323465 1344300 
2558.312 1363575 1380449 1394103 1403770 1408691 1408612 1403928 1395949 
2562.169 1386705 1378610 1373668 1373040 1376627 1383037 1389880 1394660 
2566.027 1395155 1390104 1379705 1365349 1349630 1335612 1326396 1324371 
2569.884 1330556 1344691 1364954 1388497 1411934 1431965 1446127 1453031 
2573.742 1452638 1446214 1435925 1424467 1414734 1409061 1408979 1414941 
2577.599 1426259 1441234 1457558 1472808 1484852 1492328 1494617 1491976 
2581.457 1485277 1475890 1465364 1455234 1446973 1441633 1439655 1440635 
2585.314 1443386 1446093 1446788 1443994 1437282 1427442 1416409 1406520 
2589.171 1399903 1397583 1399425 1404048 1409664 1414587 1418016 1419993 
2593.029 1421310 1422827 1425146 1428240 1431571 1434658 1437364 1440149 
2596.886 1444103 1450298 1459348 1470764 1483137 1494416 1502566 1506434 
2600.744 1506119 1503009 1499253 1496892 1497143 1499911 1503860 1506998 
2604.601 1507461 1504451 1498422 1491114 1484880 1481820 1482934 1487805 
2608.458 1494551 1500670 1503803 1502661 1497444 1489849 1482455 1478003 
2612.316 1478424 1484530 1495682 1510227 1525902 1540443 1552085 1559777 
2616.173 1563439 1563727 1562081 1560374 1560573 1564229 1572127 1583892 
2620.031 1598110 1612608 1625104 1634037 1638859 1640271 1639761 1639022 
2623.888 1638962 1639766 1640649 1640536 1638745 1635524 1631958 1629741 
2627.746 1630437 1634632 1641894 1650644 1659026 1665431 1669088 1670155 
2631.603 1669479 1667971 1666303 1664661 1662992 1661233 1659562 1658439 
2635.460 1658317 1659259 1660688 1661453 1660391 1656483 1649851 1641424 
2639.318 1632694 1625186 1619680 1615938 1612923 1609214 1603835 1596634 
2643.175 1588534 1581098 1575826 1573688 1574650 1577879 1582042 1585966 
2647.033 1588940 1590946 1592330 1593821 1595918 1598977 1603069 1608045 
2650.890 1613717 1619685 1625273 1629588 1631587 1630305 1625295 1616681 
2654.748 1605424 1592906 1580662 1569779 1560651 1553010 1546046 1538829 
2658.605 1530806 1521692 1511728 1501260 1490478 1479316 1467385 1454199 
2662.462 1439313 1422575 1404207 1384764 1364933 1345464 1327037 1310241 
2666.320 1295540 1283284 1273714 1266857 1262662 1260834 1260991 1262730 
2670.177 1265516 1268902 1272325 1275320 1277385 1278279 1278070 1277154 
2674.035 1276113 1275501 1275480 1275656 1275151 1272897 1268096 1260630 
2677.892 1251422 1242122 1234801 1231067 1231836 1236733 1244551 1253484 
2681.750 1262018 1269234 1274899 1279415 1283286 1286790 1289692 1291516 
2685.607 1291721 1290099 1287135 1283766 1281124 1280084 1280962 1283336 
2689.464 1286233 1288374 1288704 1286609 1282161 1275961 1268993 1262420 
2693.322 1257343 1254555 1254545 1257404 1262711 1269790 1277783 1285853 
2697.179 1293419 1300248 1306482 1312520 1318678 1325038 1331291 1336823 
2701.037 1340836 1342678 1342057 1339182 1334647 1329286 1324042 1319629 
2704.894 1316403 1314435 1313526 1313298 1313387 1313585 1313828 1314415 
2708.751 1315793 1318533 1323071 1329418 1337157 1345209 1352264 1357021 
2712.609 1358599 1356949 1352807 1347544 1342835 1340053 1340081 1342959 
2716.466 1348231 1355072 1362645 1370292 1377579 1384194 1389855 1394177 
2720.324 1396941 1398065 1398030 1397556 1397731 1399558 1403567 1409742 
2724.181 1417454 1425737 1433757 1441058 1447914 1454956 1463080 1472891 
2728.039 1484426 1496983 1509262 1519824 1527404 1531284 1531353 1528084 
2731.896 1522321 1514897 1506507 1497684 1488721 1479874 1471503 1464082 
2735.753 1458211 1454411 1453070 1454263 1457788 1463234 1470106 1477926 
2739.611 1486394 1495343 1504498 1513537 1521779 1528350 1532365 1533122 
2743.468 1530399 1524775 1517288 1509330 1502308 1497072 1493889 1492364 
2747.326 1491778 1491413 1490854 1490129 1489606 1489720 1490617 1492152 
2751.183 1493918 1495325 1496067 1496227 1496249 1496816 1498455 1501333 
2755.041 1505228 1509523 1513467 1516488 1518308 1518962 1518663 1517642 
2758.898 1516185 1514404 1512492 1510793 1509677 1509542 1510668 1512887 
2762.755 1515793 1518616 1520680 1521493 1521062 1519917 1518772 1518378 
2766.613 1519264 1521535 1524976 1529059 1533274 1537063 1540007 1541836 
2770.470 1542347 1541480 1539535 1537105 1535168 1534784 1537005 1542327 
2774.328 1550602 1560911 1571876 1581858 1589663 1594582 1596770 1596954 
2778.185 1596215 1595605 1595845 1597223 1599628 1602548 1605356 1607530 
2782.042 1608650 1608620 1607609 1606037 1604577 1603883 1604422 1606337 
2785.900 1609346 1612712 1615564 1617088 1616891 1615101 1612506 1610303 
2789.757 1609869 1612274 1618175 1627574 1639799 1653764 1668307 1682191 
2793.615 1694561 1704842 1712892 1718786 1722802 1725232 1726253 1726081 
2797.472 1724875 1722925 1720757 1719126 1718848 1720669 1725002 1731765 
2801.330 1740179 1749217 1757629 1764413 1769136 1771976 1773638 1775046 
2805.187 1777011 1779967 1783914 1788364 1792663 1796124 1798217 1798658 
2809.044 1797238 1793976 1788965 1782421 1774808 1766852 1759471 1753656 
2812.902 1750175 1749435 1751333 1755294 1760363 1765585 1770166 1773820 
2816.759 1776539 1778813 1781220 1784301 1788434 1793716 1800053 1807197 
2820.617 1815027 1823392 1832367 1842019 1852416 1863425 1874743 1885903 
2824.474 1896461 1906053 1914678 1922632 1930475 1938835 1948207 1958658 
2828.332 1970057 1981793 1993220 2003852 2013362 2021733 2029163 2035880 
2832.189 2042075 2047766 2053107 2058344 2063993 2070839 2079665 2091064 
2836.046 2105241 2121641 2139321 2156885 2173070 2186984 2198424 2207819 
2839.904 2216164 2224636 2234330 2245867 2259328 2274319 2289950 2305407 
2843.761 2319967 2333545 2346658 2360344 2375939 2394588 2416968 2442862 
2847.619 2471146 2500092 2527696 2552318 2572991 2589798 2603604 2615900 
2851.476 2628298 2642217 2658556 2677627 2699169 2722540 2746813 2770981 
2855.333 2794060 2815398 2834645 2852130 2868653 2885360 2903527 2924088 
2859.191 2947356 2973169 3000801 3029419 3058461 3087909 3118296 3150538 
2863.048 3185555 3224019 3266239 3312151 3361557 3414366 3470709 3530799 
2866.906 3594867 3662746 3733838 3806942 3880593 3953458 4024572 4093784 
2870.763 4161445 4228515 4296065 4364807 4435089 4506438 4577970 4648341 
2874.621 4716232 4780590 4840691 4896342 4947514 4994377 5036807 5074507 
2878.478 5106915 5133578 5154339 5169820 5181408 5191070 5201224 5213938 
2882.335 5230722 5252124 5277700 5306541 5337270 5368735 5400020 5430532 
2886.193 5460033 5488300 5515283 5540881 5565020 5587562 5608202 5626348 
2890.050 5641038 5650894 5654543 5650865 5639440 5620847 5596537 5568657 
2893.908 5539420 5510692 5483494 5458126 5434137 5410687 5387182 5363224 
2897.765 5338891 5314635 5291108 5269159 5249581 5233304 5220970 5213303 
2901.623 5210682 5213092 5220082 5230744 5243837 5257767 5270922 5281692 
2905.480 5288581 5290493 5286721 5277214 5262502 5243759 5222574 5200499 
2909.337 5178945 5158572 5139410 5120968 5102352 5082557 5060871 5036841 
2913.195 5010369 4981543 4950616 4917849 4883654 4848545 4813242 4778611 
2917.052 4745684 4715452 4688941 4666971 4650394 4639714 4635302 4637182 
2920.910 4645014 4658201 4675894 4697220 4721461 4748018 4776549 4806646 
2924.767 4837866 4869526 4900871 4931266 4960418 4988647 5016810 5046291 
2928.625 5078634 5115250 5157194 5204949 5258525 5317607 5381498 5449313 
2932.482 5520017 5592701 5666505 5740822 5815461 5890564 5966386 6043215 
2936.339 6121104 6199791 6278999 6358446 6438314 6519077 6601608 6686587 
2940.197 6774404 6864775 6957017 7050334 7144241 7239009 7335571 7435254 
2944.054 7539215 7647962 7761065 7877469 7995718 8114778 8234140 8353974 
2947.912 8474813 8597096 8720873 8845729 8971079 9096473 9221861 9347513 
2951.769 9473919 9601074 9728512 9855078 9979480 10100725 10218813 10334785 
2955.626 10450546 10568092 10689019 10813751 10941511 11070547 11198723 
2959.002 11323992 11444940 11560532 11670345 11774036 11871311 11961944 
2962.377 12045705 12122729 12193180 12257469 12315746 12367826 12413052 
2965.752 12450457 12478877 12497388 12505344 12502523 12489080 12465344 
2969.127 12431647 12388448 12335964 12274528 12204514 12126481 12040967 
2972.503 11948637 11850060 11745561 11635295 11519150 11396651 11267430 
2975.878 11131207 10988110 10838810 10684376 10526078 10365027 10201727 
2979.253 10035990 9866997 9693904 9516207 9334424 9150114 8965734 8783795 
2983.111 8606257 8434038 8266651 8102838 7941078 7780330 7620518 7462416 
2986.968 7307274 7156193 7009493 6866777 6726937 6588872 6451974 6316590 
2990.825 6183978 6055852 5934006 5819557 5712705 5612699 5518175 5427483 
2994.683 5339205 5252333 5166474 5081543 4997661 4914952 4833321 4752642 
2998.540 4672720 4593676 4516117 4441047 4369801 4303720 4243599 4189249 
3002.398 4139577 4092628 4045969 3997629 3946357 3892136 3836073 3779854 
3006.255 3725291 3673602 3625237 3579701 3535959 3492769 3449100 3404306 
3010.113 3358366 3311611 3264928 3219464 3176405 3137036 3101971 3071177 
3013.970 3043701 3017602 2990632 2960561 2926187 2887571 2846379 2805249 
3017.827 2767141 2734496 2708567 2689016 2674199 2661615 2648539 2632620 
3021.685 2612348 2587130 2557609 2525104 2491738 2459760 2431127 2407136 
3025.542 2387827 2372128 2358233 2343907 2327606 2308700 2287829 2266424 
3029.400 2246170 2228250 2212962 2199569 2187001 2174328 2161427 2149044 
3033.257 2138589 2131410 2128255 2128715 2131353 2134114 2135179 2133351 
3037.115 2128719 2122338 2115852 2110991 2109045 2110597 2115619 2123673 
3040.972 2134228 2146918 2161733 2178830 2198763 2222058 2249171 2280484 
3044.829 2316146 2356091 2400099 2447724 2498435 2551528 2606173 2661331 
3048.687 2715880 2768528 2818087 2863589 2904389 2940202 2971083 2997046 
3052.544 3018159 3034273 3045186 3050864 3051625 3048255 3042013 3034206 
3056.402 3025961 3017787 3009601 3000955 2991396 2980933 2970125 2960185 
3060.259 2952420 2947971 2947295 2950186 2955930 2963451 2971763 2980037 
3064.116 2987597 2993944 2998528 3001088 3001654 3000733 2999469 2999141 
3067.974 3000932 3005210 3011433 3018012 3022867 3024090 3020537 3012154 
3071.831 2999907 2985387 2970375 2956370 2944548 2935743 2930778 2930363 
3075.689 2935156 2945212 2959815 2977385 2995598 3011848 3024015 3030708 
3079.546 3031694 3027451 3018936 3006985 2992149 2974637 2954596 2932316 
3083.404 2908500 2884084 2860010 2836977 2815058 2793960 2773025 2751670 
3087.261 2729644 2707030 2684183 2661604 2639543 2618179 2597491 2577519 
3091.118 2558525 2540999 2525580 2512881 2503343 2497072 2493921 2493516 
3094.976 2495586 2499861 2506323 2514897 2525388 2537388 2550272 2563078 
3098.833 2574998 2585186 2593252 2599163 2603422 2606582 2609376 2612118 
3102.691 2614862 2616987 2617593 2615577 2610090 2600720 2587614 2571494 
3106.548 2553400 2534211 2514642 2494901 2474895 2454246 2432817 2410672 
3110.406 2388146 2365806 2344081 2323224 2303013 2282852 2262080 2240202 
3114.263 2217031 2193103 2169548 2147836 2129666 2116328 2108525 2106061 
3118.120 2107856 2112201 2117230 2121463 2124164 2125511 2126575 2128626 
3121.978 2132769 2139194 2147135 2154847 2160353 2161844 2158516 2150728 
3125.835 2139970 2128189 2117332 2108608 2102124 2097090 2092107 2085744 
3129.693 2077190 2066390 2054071 2041560 2030216 2020891 2013765 2008207 
3133.550 2003047 1996928 1988773 1978202 1965511 1951668 1937780 1924827 
3137.407 1913326 1903203 1894038 1885292 1876650 1868247 1860455 1853705 
3141.265 1848261 1843955 1840492 1837439 1834692 1832609 1831929 1833318 
3145.122 1837011 1842352 1847907 1851762 1852119 1848070 1839811 1828621 
3148.980 1816288 1804575 1794446 1786144 1779088 1772591 1766070 1759517 
3152.837 1753236 1747632 1742883 1738725 1734724 1730469 1725990 1721774 
3156.695 1718585 1716962 1716790 1717094 1716202 1712394 1704652 1693051 
3160.552 1679083 1665070 1653407 1645717 1642437 1642645 1644635 1646520 
3164.409 1647184 1646470 1645309 1645092 1647233 1652464 1660448 1669985 
3168.267 1679271 1686456 1690209 1690159 1686896 1681782 1676454 1672369 
3172.124 1670230 1669952 1670653 1671087 1670149 1667294 1662756 1657493 
3175.982 1652580 1649007 1647084 1646546 1646635 1646534 1645942 1644965 
3179.839 1644458 1645326 1648295 1653494 1660562 1668668 1677043 1685261 
3183.697 1693396 1701930 1711342 1721741 1732721 1743160 1751581 1756498 
3187.554 1756892 1752302 1743302 1730994 1717121 1703524 1691904 1683459 
3191.411 1678780 1677588 1679030 1681671 1683992 1684739 1683258 1679548 
3195.269 1674272 1668513 1663374 1659756 1658226 1658787 1661128 1664629 
3199.126 1668462 1671664 1673322 1672758 1669726 1664524 1658107 1651893 
3202.984 1647342 1645538 1646892 1650846 1656253 1661693 1666038 1668826 
3206.841 1670195 1670672 1670730 1670379 1669123 1666070 1660563 1652654 
3210.698 1643333 1634386 1627925 1625499 1627660 1633494 1641043 1647873 
3214.556 1651892 1652204 1649229 1644657 1640741 1639531 1642161 1648545 
3218.413 1657489 1667040 1675494 1681661 1685261 1687101 1688412 1690577 
3222.271 1694299 1699686 1706026 1712055 1716474 1718299 1717053 1712939 
3226.128 1706746 1699567 1692646 1687173 1684146 1684083 1687042 1692351 
3229.986 1698799 1704708 1708365 1708598 1704994 1698246 1689827 1681589 
3233.843 1675074 1671073 1669261 1668545 1667480 1665016 1660761 1655235 
3237.700 1649523 1644677 1641361 1639358 1638017 1636306 1633486 1629384 
3241.558 1624585 1620078 1617070 1616571 1619160 1624847 1633136 1643059 
3245.415 1653279 1662219 1668202 1670060 1667369 1660833 1652390 1644772 
3249.273 1640638 1641775 1648152 1657920 1667627 1673380 1671905 1661837 
3253.130 1643992 1621204 1597531 1577026 1562767 1556292 1557417 1564509 
3256.988 1575150 1586515 1596127 1602074 1603479 1600604 1594833 1588558 
3260.845 1584685 1585640 1593055 1606889 1625496 1646079 1665370 1680685 
3264.702 1690401 1694439 1693900 1690657 1686548 1682985 1680670 1679778 
3268.560 1680114 1681414 1683361 1685747 1688144 1689885 1690057 1687575 
3272.417 1681548 1671536 1657606 1640622 1622098 1604055 1588620 1577813 
3276.275 1573029 1574710 1582188 1593786 1607070 1619644 1629618 1636222 
3280.132 1639772 1641673 1643729 1647391 1653332 1661078 1669334 1676305 
3283.990 1680327 1680474 1676712 1669822 1661211 1652521 1645482 1641371 
3287.847 1641314 1645820 1654891 1667934 1683563 1699948 1714950 1726634 
3291.704 1733654 1735498 1732693 1726465 1718390 1710037 1702643 1697026 
3295.562 1693628 1692694 1694378 1698716 1705454 1713975 1722996 1730958 
3299.419 1736223 1737473 1734285 1727066 1717201 1706381 1696389 1688354 
3303.277 1682809 1679610 1678316 1678561 1680290 1683727 1689204 1696656 
3307.134 1705418 1714195 1721311 1725167 1724897 1720654 1713480 1705072 
3310.991 1697150 1690815 1686387 1683167 1680070 1676027 1670451 1663517 
3314.849 1656138 1649657 1645396 1644513 1647542 1654507 1664911 1677788 
3318.706 1691793 1705369 1716814 1724666 1727912 1726281 1720450 1711879 
3322.564 1702481 1694283 1688881 1687220 1689515 1695289 1703796 1713978 
3326.421 1724900 1735591 1745260 1753336 1759450 1763758 1766559 1768490 
3330.279 1770042 1771337 1772029 1771414 1768876 1764270 1758343 1752606 
3334.136 1749069 1749377 1754194 1762736 1772860 1781800 1786982 1786972 
3337.993 1781856 1773077 1762784 1752814 1744242 1737000 1730261 1723150 
3341.851 1715421 1707881 1702009 1699464 1701211 1706894 1714821 1722246 
3345.708 1726420 1725390 1718839 1707933 1695128 1683263 1674571 1670154 
3349.566 1669789 1671915 1674469 1675317 1672985 1666924 1657524 1645977 
3353.423 1633977 1623323 1615443 1611236 1610692 1613160 1617192 1621102 
3357.281 1623191 1622344 1618347 1611884 1604554 1598358 1595211 1596453 
3361.138 1602525 1612777 1625815 1639725 1652559 1662703 1669322 1672064 
3364.995 1671267 1667480 1661492 1653856 1644910 1634675 1622926 1609426 
3368.853 1594061 1577193 1559679 1543030 1529257 1520401 1518395 1524279 
3372.710 1538228 1559162 1585111 1613310 1640843 1664985 1683379 1694595 
3376.568 1698097 1694230 1684273 1670216 1654412 1639319 1626884 1618374 
3380.425 1614098 1613502 1615465 1618664 1621897 1624383 1625601 1625345 
3384.282 1623536 1620161 1615596 1610586 1606369 1604681 1606997 1614238 
3388.140 1626181 1641352 1657415 1671950 1683162 1690617 1695222 1698611 
3391.997 1702605 1708088 1714700 1721132 1725506 1726582 1724175 1719412 
3395.855 1714375 1711192 1711549 1715982 1724005 1734570 1746336 1758447 
3399.712 1770381 1781806 1792527 1802169 1810525 1817639 1824083 1831020 
3403.570 1839636 1850712 1864075 1878358 1891411 1901075 1906146 1907021 
3407.427 1905839 1905891 1910496 1922025 1940996 1966180 1994868 2024097 
3411.284 2051517 2075947 2097727 2117933 2137999 2158842 2180508 2202321 
3415.142 2223030 2241713 2257990 2272596 2287161 2303939 2325107 2352060 
3418.999 2384895 2422226 2461375 2499057 2532136 2558486 2577509 2590195 
3422.857 2598857 2606126 2614424 2625207 2638859 2654745 2671665 2688316 
3426.714 2703688 2717147 2728448 2737658 2745090 2751181 2756672 2762489 
3430.572 2769466 2778252 2789033 2801092 2813364 2824400 2832924 2838296 
3434.429 2840573 2840206 2837902 2833984 2828302 2820205 2808891 2793849 
3438.286 2775335 2754345 2732598 2711847 2693518 2678146 2665382 2653928 
3442.144 2642065 2627947 2610147 2587898 2561246 2530994 2498650 2466048 
3446.001 2435209 2407814 2385092 2367578 2355097 2346757 2341177 2336687 
3449.859 2331487 2323779 2311923 2294677 2271298 2242123 2208463 2172863 
3453.716 2138632 2109296 2087909 2076128 2073934 2079448 2089330 2099668 
3457.573 2106792 2107980 2101999 2088916 2070113 2047274 2022330 1996964 
3461.431 1972350 1949454 1929006 1911647 1897921 1888063 1881980 1878790 
3465.288 1877133 1875208 1871295 1864078 1853090 1838844 1822770 1806728 
3469.146 1792637 1781998 1775649 1773802 1776224 1782383 1791640 1803206 
3473.003 1816092 1828924 1839908 1847248 1849358 1845372 1835381 1820585 
3476.861 1802860 1784339 1767099 1752583 1741819 1735390 1733718 1737085 
3480.718 1745549 1758556 1774766 1792032 1807623 1818910 1824033 1822452 
3484.575 1815167 1804212 1792343 1782003 1774933 1771905 1772922 1777388 
3488.433 1784685 1794009 1804482 1814899 1823706 1829014 1829185 1823349 
3492.290 1811949 1797034 1781800 1769960 1764805 1768164 1780089 1798769 
3496.148 1821324 1844476 1865689 1883721 1898473 1910718 1921172 1929962 
3500.005 1936229 1938199 1933943 1922320 1903809 1880643 1856757 1836687 
3503.863 1824556 1822821 1831863 1849888 1873588 1899169 1923090 1943160 
3507.720 1958260 1968407 1974519 1977688 1979231 1980281 1981720 1984313 
3511.577 1988275 1993429 1999197 2004766 2009335 2012536 2014488 2015673 
3515.435 2016681 2017761 2018816 2019223 2018508 2016671 2014632 2014034 
3519.292 2016909 2024654 2037542 2054301 2072450 2089162 2101918 2109708 
3523.150 2112836 2112688 2110929 2108720 2106308 2103268 2098925 2093124 
3527.007 2086753 2081494 2079681 2083176 2093073 2108936 2129253 2151665 
3530.865 2173611 2192837 2207690 2217240 2221272 2220304 2215452 2208353 
3534.722 2200980 2195280 2192751 2194239 2199660 2208235 2218786 2230315 
3538.579 2242027 2253553 2264749 2275449 2285259 2293692 2300376 2305383 
3542.437 2309354 2313434 2318897 2326710 2337077 2349201 2361627 2372470 
3546.294 2379988 2382877 2380647 2373378 2361799 2347197 2331208 2315943 
3550.152 2303721 2296655 2296286 2303059 2316166 2333436 2351944 2368617 
3554.009 2380812 2386948 2386458 2379688 2367795 2352168 2334456 2316358 
3557.866 2299670 2285993 2276574 2271917 2271518 2274053 2277617 2280344 
3561.724 2281036 2279536 2276706 2274091 2273141 2274563 2278071 2282310 
3565.581 2285293 2284978 2280095 2270365 2256639 2240488 2223963 2208754 
3569.439 2195822 2185213 2175936 2166187 2154145 2138189 2117539 2092603 
3573.296 2064905 2036833 2010941 1989305 1973053 1962185 1955694 1952238 
3577.154 1950713 1950592 1952163 1956196 1963160 1972865 1984003 1994375 
3581.011 2001518 2003519 1999737 1991098 1979919 1968955 1960418 1955186 
3584.868 1952322 1949493 1943885 1933439 1917841 1899029 1880779 1867712 
3588.726 1863811 1871247 1889699 1916322 1946775 1976255 2000781 2017855 
3592.583 2026687 2027960 2023275 2014476 2003467 1991949 1981430 1973104 
3596.441 1967867 1965898 1966584 1968501 1969972 1969524 1966551 1961766 
3600.298 1957065 1954971 1957782 1966660 1981318 1999935 2019768 2037939 
3604.156 2052330 2061922 2066785 2068078 2067314 2066040 2065445 2066338 
3608.013 2069195 2074160 2081246 2090395 2101742 2115455 2131891 2151510 
3611.870 2174425 2200007 2226705 2251994 2272944 2286807 2291985 2288802 
3615.728 2279323 2267033 2255665 2248064 2245531 2247581 2252490 2258337 
3619.585 2264039 2269744 2276764 2286671 2300477 2317760 2336400 2353293 
3623.443 2365220 2369800 2366483 2356484 2342435 2327848 2316074 2309748 
3627.300 2310433 2318364 2332604 2350852 2370290 2387392 2399042 2402975 
3631.157 2398457 2386511 2369724 2351421 2334788 2322025 2313731 2309114 
3635.015 2306670 2305009 2303786 2303896 2306928 2314633 2327574 2344631 
3638.872 2363077 2379156 2389326 2391565 2385881 2374379 2360449 2347472 
3642.730 2337849 2331886 2328324 2324723 2318806 2309407 2296918 2283323 
3646.587 2271013 2261826 2256228 2252726 2248487 2240127 2225328 2203536 
3650.445 2176555 2148039 2122303 2103039 2092256 2089638 2093102 2099573 
3654.302 2105997 2110496 2112518 2112747 2112375 2112285 2112257 2111025 
3658.159 2106832 2097983 2083851 2065380 2044904 2025641 2010540 2001628 
3662.017 1999287 2002167 2007851 2013634 2017280 2017509 2013950 2006971 
3665.874 1997088 1984522 1969284 1951485 1931728 1911636 1893706 1881063 
3669.732 1876512 1881471 1895514 1916098 1939264 1960591 1976494 1984923 
3673.589 1985664 1979811 1969286 1955862 1940660 1924050 1906033 1886756 
3677.447 1867020 1848254 1832544 1821577 1816366 1816580 1820542 1825665 
3681.304 1829100 1828710 1823458 1813886 1801917 1790280 1781787 1778625 
3685.161 1781649 1790068 1801554 1812722 1819742 1819251 1809540 1790609 
3689.019 1764741 1735707 1708056 1685838 1671798 1666665 1669157 1676434 
3692.876 1684763 1690696 1691758 1686858 1676428 1662023 1645687 1629398 
3696.734 1614504 1601303 1589423 1578048 1566287 1553967 1541670 1530868 
3700.591 1523567 1521574 1525858 1536260 1551248 1568212 1584227 1596765 
3704.448 1604435 1607186 1606192 1603115 1599788 1597305 1595999 1595425 
3708.306 1594925 1593929 1592312 1590409 1588790 1587619 1586695 1585237 
3712.163 1582201 1576904 1569506 1561100 1553686 1549328 1549529 1554714 
3716.021 1563817 1574650 1584816 1592198 1596050 1596904 1596227 1595825 
3719.878 1597152 1600545 1605497 1610897 1615752 1619760 1623433 1627843 
3723.736 1633961 1642125 1651513 1660293 1666319 1667745 1663832 1655439 
3727.593 1644598 1634031 1626244 1622735 1623706 1628135 1634488 1641155 
3731.450 1647374 1653233 1659743 1668217 1679668 1694285 1710995 1727687 
3735.308 1741719 1750514 1752417 1747349 1736886 1723781 1711273 1702306 
3739.165 1698445 1699828 1704981 1711651 1717708 1721738 1723677 1724475 
3743.023 1725901 1729370 1735498 1743659 1752273 1759197 1762585 1761570 
3746.880 1756363 1748344 1739444 1731735 1726899 1725941 1728938 1735038 
3750.738 1742884 1750546 1756324 1758812 1757454 1752589 1745486 1737941 
3754.595 1731727 1728416 1728739 1732671 1739812 1749219 1760178 1772033 
3758.452 1784157 1795844 1806212 1814341 1819311 1821170 1820534 1819015 
3762.310 1818202 1819431 1822930 1827602 1831380 1832031 1827901 1818912 
3766.167 1806415 1792969 1781425 1773804 1770750 1771330 1773185 1773740 
3770.025 1770507 1761996 1747951 1729307 1707983 1686518 1667777 1654427 
3773.882 1648550 1651047 1661188 1676627 1693613 1707963 1716134 1716315 
3777.740 1709186 1697806 1686828 1681110 1684336 1697888 1720444 1748276 
3781.597 1776563 1800275 1815773 1821048 1816261 1803323 1785020 1764521 
3785.454 1744540 1726888 1712315 1700742 1691501 1683703 1676741 1670398 
3789.312 1665017 1661259 1659796 1661111 1665243 1671698 1679577 1687827 
3793.169 1695571 1702123 1707217 1710914 1713495 1715339 1716803 1718215 
3797.027 1719895 1722046 1724897 1728448 1732661 1737359 1742185 1746847 
3800.884 1750925 1754101 1756131 1756901 1756372 1754952 1753124 1751856 
3804.741 1752295 1755549 1762475 1773137 1786786 1801574 1814760 1823627 
3808.599 1825618 1819392 1805165 1784644 1760918 1737534 1717758 1703606 
3812.456 1695540 1692295 1691718 1691383 1689758 1686511 1682702 1680156 
3816.314 1680368 1683940 1689826 1695764 1699097 1697854 1691677 1682161 
3820.171 1672427 1666066 1665943 1672958 1685782 1701335 1715819 1725865 
3824.029 1729629 1727095 1719898 1710626 1701992 1696315 1694851 1698113 
3827.886 1705823 1717225 1731349 1746938 1762713 1777429 1789827 1799200 
3831.743 1805215 1807984 1808019 1806076 1802708 1798338 1793157 1787141 
3835.601 1780108 1772021 1762853 1752860 1742622 1733088 1725377 1720994 
3839.458 1720850 1725526 1734396 1746006 1757968 1767837 1773462 1773878 
3843.316 1769429 1761633 1752689 1744645 1738942 1735941 1734910 1734574 
3847.173 1733464 1730487 1725319 1718501 1711450 1706072 1704598 1708948 
3851.031 1720248 1738321 1761520 1786676 1809739 1826834 1835130 1833798 
3854.888 1824343 1809993 1794762 1782137 1774353 1771824 1773298 1776814 
3858.745 1780422 1782763 1783542 1783260 1783018 1783642 1785791 1789493 
3862.603 1794256 1799202 1803257 1805034 1803331 1797279 1786629 1772225 
3866.460 1755888 1740223 1727921 1721015 1720297 1724889 1732681 1741097 
3870.318 1747844 1751626 1752453 1751155 1749053 1747053 1745494 1744298 
3874.175 1743179 1742372 1742537 1744635 1749354 1756464 1764587 1771246 
3878.032 1773751 1770024 1759465 1743241 1723950 1704890 1688919 1677919 
3881.890 1672282 1671373 1674062 1679455 1687214 1697472 1710489 1726047 
3885.747 1743131 1759922 1774194 1783981 1788081 1786506 1780243 1771258 
3889.605 1761594 1753308 1747860 1746161 1748540 1754620 1763712 1774670 
3893.462 1786062 1796375 1804239 1808662 1809447 1806932 1802119 1796274 
3897.320 1790650 1786277 1783679 1783156 1784721 1788310 1793651 1800403 
3901.177 1807876 1815272 1821704 1826582 1829762 1831884 1833627 1835959 
3905.034 1839076 1842599 1845339 1845959 1843609 1838444 1831735 1825704 
3908.892 1822434 1823117 1827532 1833703 1838932 1840652 1837564 1830244 
3912.749 1821061 1813462 1810658 1814696 1825708 1841943 1860256 1877223 
3916.607 1889814 1896097 1895385 1888215 1876069 1861085 1845547 1831621 
3920.464 1820962 1814149 1810721 1809053 1807121 1803101 1796123 1787003 
3924.322 1777842 1771451 1770394 1775671 1786550 1800351 1813590 1823085 
3928.179 1826927 1824954 1818731 1810506 1802503 1795986 1790731 1785765 
3932.036 1779507 1770825 1759457 1746269 1733144 1722427 1716554 1717516 
3935.894 1726446 1743311 1766875 1794575 1823038 1848426 1867200 1876824 
3939.751 1876301 1866289 1849029 1827610 1805501 1785713 1770225 1760000 
3943.609 1754909 1753948 1755602 1758405 1761037 1762850 1763924 1764985 
3947.466 1767038 1770928 1776774 1783866 1790523 1795079 1796105 1793586 
3951.323 1788712 1783691 1780918 1781771 1786051 1791828 1796204 1796595 
3955.181 1791888 1783194 1773479 1766754 1766440 1774233 1789382 1809109 
3959.038 1829797 1848013 1861912 1871358 1877582 1882322 1886705 1890943 
3962.896 1894160 1895041 1892616 1886884 1878760 1870223 1863105 1858908 
3966.753 1858177 1860476 1864782 1869633 1873928 1876947 1878239 1878095 
3970.611 1876780 1874947 1873392 1872994 1874698 1879250 1886972 1897677 
3974.468 1910462 1923917 1936178 1945432 1950198 1949528 1943314 1932274 
3978.325 1917834 1901738 1886081 1872580 1862635 1856849 1855327 1857538 
3982.183 1862644 1869806 1878423 1888004 1898468 1909563 1920955 1932083 
3986.040 1941932 1949620 1954144 1954929 1951998 1945886 1937621 1928500 
3989.898 1919857 1912763 1907928 1905538 1905380 1906814 1908796 1910405 
3993.755 1910595 1908618 1904045 1896941 1887748 1877429 1867188 1858392 
3997.613 1852431 1850338 1852837 1860038 1871514 1886341 1903131 
##END=
