##TITLE=Tecor_PLA+_White_Filament_r7_ATR-Corrected
##JCAMP-DX=5.01  $$ Nicolet v. 1
##DATATYPE=INFRARED SPECTRUM
##ORIGIN=Curtin University
##OWNER=Nicolet
##LONGDATE=2024/07/19
##TIME=09:04:18
##SPECTROMETER/DATA SYSTEM=Nicolet iS50
##DATA PROCESSING=
Ratio against background
%Transmittance->Absorbance
ATR Correction
Truncated
ElementMultiply or ElementDivide
##COMMENTS=
Number of sample scans: 32
Collection length: 47.27 sec
Sample gain: 1.0
Background collected on: Fri Jul 19 09:03:01 2024 (GMT+08:00);
Number of background scans: 32
Background gain: 1.0
Sample spacing:  1.000
Number of scan points: 16672
Resolution points: 8192
Number of FFT points: 65536
Apodization: N-B strong;
Phase correction: Mertz;
Laser frequency: 15798.3 cm-1
Number of rejected sample scans: 0
Number of rejected background scans: 0
Bench serial number: AUP1200105;
##RESOLUTION=4.000
##XUNITS=1/CM
##YUNITS=ABSORBANCE
##FIRSTX=400.163452
##LASTX=4000.187744
##FIRSTY=0.064157
##MAXX=4000.187744
##MINX=400.163452
##MAXY=1.210866
##MINY=-0.035411
##XFACTOR=1.000000
##YFACTOR=1.000000E-008
##NPOINTS=7468
##DELTAX=0.482125
##ZPD=8192
##XYDATA=(X++(Y..Y))
400.163 6415734 6296222 6161698 6021816 5880648 5740362 5602484 5469504 
404.020 5344981 5232574 5134303 5049699 4975908 4908936 4845304 4782950 
407.877 4721263 4660201 4599237 4536982 4471732 4402524 4330342 4257984 
411.734 4189046 4125815 4067592 4010146 3946887 3871221 3779365 3672046 
415.591 3554395 3434112 3318736 3213547 3120892 3041222 2974926 2923940 
419.448 2891846 2882432 2897136 2932792 2980898 3029208 3064880 3078348 
423.305 3066001 3031031 2981910 2929419 2883344 2849913 2830839 2823791 
427.162 2823794 2824886 2821408 2808926 2784861 2748877 2703230 2652650 
431.019 2603672 2563237 2536879 2527028 2532495 2548493 2568257 2585065 
434.876 2594161 2593745 2584823 2570232 2553213 2536370 2521179 2508196 
438.733 2497505 2489179 2483296 2479785 2478238 2477892 2477967 2478014 
442.590 2478214 2479152 2481240 2484130 2486349 2485609 2479726 2467626 
446.447 2450174 2430094 2411107 2396485 2387808 2384433 2383966 2383522 
450.304 2381073 2376396 2370948 2367054 2366651 2370366 2377218 2385253 
454.161 2392383 2397242 2399406 2399017 2396054 2389906 2379397 2363463 
458.017 2342069 2316808 2290671 2267110 2248634 2235665 2226258 2216875 
461.874 2203970 2185674 2162836 2138665 2118250 2105944 2103973 2111658 
465.731 2125765 2141796 2155514 2164233 2167165 2165049 2159197 2150595 
469.588 2139449 2125338 2107811 2087050 2064203 2041221 2020205 2002672 
473.445 1988976 1978252 1968829 1958989 1947767 1935283 1922775 1912060 
477.302 1904782 1901719 1902336 1904819 1906504 1904581 1896835 1882292 
481.159 1861464 1836317 1809812 1785234 1765408 1752099 1745567 1744569 
485.016 1746629 1748726 1747961 1742380 1731488 1716454 1699823 1684896 
488.873 1674754 1671427 1675223 1684695 1697116 1709318 1718773 1724349 
492.730 1726545 1727167 1728437 1731889 1738110 1745953 1753080 1756742 
496.587 1754724 1746064 1731308 1712366 1691901 1672675 1656946 1646118 
500.444 1640634 1640040 1643195 1648555 1654439 1659421 1662604 1663815 
504.301 1663525 1662573 1661674 1660975 1659847 1657041 1651231 1641703 
508.158 1628900 1614504 1601027 1590919 1585664 1585204 1587994 1591581 
512.015 1593585 1592581 1588453 1582153 1575025 1567973 1561014 1553422 
515.871 1544316 1533556 1522286 1512903 1508305 1510796 1520935 1537038 
519.728 1555401 1571361 1580670 1580780 1571546 1555011 1534579 1513787 
523.585 1495227 1479943 1467559 1456641 1446153 1435603 1425568 1417476 
527.442 1413024 1413480 1419072 1428755 1440422 1451449 1459376 1462556 
531.299 1460491 1453842 1444132 1433215 1422799 1414048 1407411 1402626 
535.156 1398919 1395213 1390366 1383402 1373733 1361303 1346789 1331562 
539.013 1317519 1306721 1300839 1300645 1305744 1314520 1324584 1333414 
542.870 1339056 1340661 1338598 1334228 1329319 1325478 1323638 1323936 
546.727 1325713 1327947 1329541 1329680 1328049 1324863 1320861 1317117 
550.584 1314852 1315139 1318576 1325071 1333758 1343140 1351489 1357304 
554.441 1359719 1358704 1354926 1349309 1342938 1336531 1330528 1325305 
558.298 1321425 1319710 1321058 1326012 1334295 1344651 1355175 1363966 
562.155 1369985 1373652 1376850 1382214 1392056 1407219 1426461 1446676 
566.012 1463847 1474438 1476548 1470540 1458779 1444682 1431601 1421867 
569.869 1416400 1414982 1416867 1421413 1428417 1438068 1450481 1465305 
573.725 1481451 1497200 1510596 1519996 1524481 1524204 1520249 1514538 
577.582 1509420 1507290 1510136 1519164 1534432 1554702 1577560 1599925 
581.439 1618772 1631962 1638859 1640488 1639182 1637778 1638713 1643333 
585.296 1651626 1662433 1673985 1684561 1692906 1698383 1700882 1700642 
589.153 1698094 1693960 1689252 1685332 1683717 1685735 1692034 1702313 
593.010 1715307 1729178 1742119 1752975 1761592 1768799 1775936 1784267 
596.867 1794483 1806385 1819016 1830982 1840888 1847667 1850801 1850279 
600.724 1846630 1840807 1834188 1828444 1825424 1826771 1833569 1845985 
604.581 1863155 1883325 1904299 1924036 1941112 1955059 1966271 1975848 
608.438 1985111 1995336 2007452 2021997 2039057 2058291 2078938 2099895 
612.295 2119852 2137622 2152487 2164533 2174841 2185328 2198355 2216137 
616.152 2240141 2270710 2306970 2347052 2388567 2429035 2466414 2499265 
620.009 2526950 2549605 2568029 2583570 2597859 2612487 2628682 2647003 
623.866 2667233 2688451 2709424 2728973 2746462 2761950 2776173 2790195 
627.723 2805063 2821373 2839163 2857972 2877081 2895811 2913763 2930871 
631.579 2947348 2963567 2979877 2996557 3013783 3031642 3050177 3069315 
635.436 3088919 3108740 3128514 3148127 3167727 3187821 3209188 3232691 
639.293 3258965 3288056 3319295 3351311 3382252 3410250 3433838 3452326 
643.150 3465982 3475922 3483824 3491499 3500471 3511614 3525091 3540383 
647.007 3556625 3572895 3588614 3603659 3618394 3633448 3649484 3666930 
650.864 3685904 3706307 3727996 3750966 3775436 3801653 3829631 3858814 
654.721 3887893 3915002 3938086 3955561 3966895 3972918 3975689 3978025 
658.578 3982733 3991912 4006462 4026014 4049194 4074102 4098826 4121853 
662.435 4142310 4159988 4175312 4189199 4202892 4217703 4234680 4254265 
666.292 4276060 4298812 4320679 4339830 4355044 4366310 4374971 4383350 
670.149 4394100 4409310 4429808 4454910 4482725 4510782 4536846 4559581 
674.006 4578793 4595272 4610307 4625140 4640572 4656816 4673598 4690460 
677.863 4706989 4722978 4738509 4753899 4769496 4785695 4802839 4821126 
681.720 4840507 4860639 4880870 4900402 4918506 4934883 4949810 4964216 
685.577 4979418 4996677 5016723 5039428 5063810 5088379 5111669 5132736 
689.433 5151470 5168459 5184597 5200546 5216352 5231362 5244553 5255010 
693.290 5262479 5267678 5272175 5277972 5286912 5300103 5317683 5338840 
697.147 5362162 5386071 5409274 5430953 5450830 5469021 5485822 5501538 
701.004 5516330 5530178 5542816 5553766 5562376 5567889 5569598 5567037 
704.861 5560145 5549350 5535532 5519871 5503538 5487393 5471808 5456517 
708.718 5440756 5423422 5403341 5379522 5351306 5318429 5281056 5239669 
712.575 5194979 5147818 5099001 5049253 4999041 4948537 4897456 4845067 
716.432 4790155 4731143 4666250 4593808 4512600 4422195 4323175 4217192 
720.289 4106783 3994980 3884800 3778744 3678454 3584607 3497121 3415518 
724.146 3339424 3268926 3204747 3148148 3100665 3063660 3038005 3023890 
728.003 3020887 3028184 3044944 3070641 3105261 3149311 3203648 3269190 
731.860 3346557 3435832 3536449 3647257 3766748 3893309 4025452 4161907 
735.717 4301566 4443267 4585626 4726903 4865086 4998157 5124500 5243236 
739.574 5354395 5458873 5558027 5653270 5745680 5835744 5923490 6008738 
743.431 6091543 6172446 6252563 6333447 6416678 6503542 6594746 6690369 
747.287 6790028 6893114 6999042 7107395 7217896 7330294 7444150 7558702 
751.144 7672836 7785069 7893689 7996832 8092610 8179146 8254542 8316932 
755.001 8364417 8395094 8407071 8398588 8368274 8315290 8239681 8142481 
758.858 8025785 7892535 7746123 7589940 7426887 7259140 7088055 6914424 
762.715 6738805 6561963 6385146 6210121 6039092 5874378 5717986 5571312 
766.572 5434915 5308366 5190417 5079152 4972388 4868028 4764438 4660731 
770.429 4556864 4453542 4351910 4253094 4157962 4066754 3979158 3894526 
774.286 3812201 3731839 3653563 3577799 3505071 3435560 3368951 3304343 
778.143 3240465 3176038 3110185 3042599 2973683 2904336 2835679 2768739 
782.000 2704189 2642192 2582391 2524018 2466056 2407503 2347661 2286362 
785.857 2224112 2162008 2101455 2043729 1989558 1938815 1890599 1843544 
789.714 1796435 1748792 1701145 1654968 1612157 1574343 1542307 1515670 
793.571 1493139 1473066 1454072 1435570 1417821 1401590 1387640 1376201 
797.428 1366813 1358476 1350154 1341261 1331963 1323058 1315575 1310192 
801.285 1306810 1304436 1301440 1296090 1287235 1274568 1258788 1241382 
805.141 1224270 1209374 1198304 1192188 1191498 1196041 1204892 1216445 
808.998 1228595 1239075 1245963 1248159 1245703 1239779 1232358 1225539 
812.855 1220972 1219283 1220044 1221990 1223580 1223586 1221520 1217738 
816.712 1213307 1209566 1207756 1208640 1212425 1218773 1226997 1236254 
820.569 1245688 1254571 1262287 1268443 1272765 1275224 1275948 1275317 
824.426 1273859 1272276 1271313 1271767 1274268 1279247 1286766 1296548 
828.283 1307964 1320183 1332454 1344294 1355681 1367042 1379130 1392732 
832.140 1408355 1426073 1445493 1465923 1486844 1508070 1530014 1553611 
835.997 1580103 1610668 1646118 1686710 1732198 1782068 1835797 1893144 
839.854 1954211 2019359 2088997 2163258 2241800 2323674 2407397 2491095 
843.711 2572800 2650653 2723058 2788858 2847280 2897996 2941031 2976772 
847.568 3005946 3029588 3049059 3065988 3082240 3099893 3121222 3148622 
851.425 3184697 3232182 3293872 3372503 3470453 3589484 3730423 3893027 
855.282 4075964 4277082 4493722 4723137 4962831 5210600 5464401 5722024 
859.139 5980804 6237407 6488022 6728758 6956268 7168314 7364041 7543965 
862.995 7709460 7862172 8003336 8133407 8251961 8357897 8449815 8526399 
866.852 8586621 8629854 8655781 8664297 8655360 8628991 8585116 8523621 
870.709 8444276 8346775 8230851 8096431 7943934 7774456 7589839 7392565 
874.566 7185509 6971528 6753140 6532328 6310484 6088577 5867310 5647339 
878.423 5429382 5214293 5003093 4797001 4597443 4406076 4224700 4055127 
882.280 3899002 3757638 3631913 3522381 3429360 3353129 3293931 3251927 
886.137 3226876 3217820 3222877 3239260 3263571 3292324 3322526 3352055 
889.994 3379853 3405629 3429572 3451883 3472507 3491106 3507215 3520478 
893.851 3530866 3538681 3544441 3548684 3551840 3554061 3555338 3555572 
897.708 3554707 3552785 3549973 3546536 3542804 3539217 3536347 3534850 
901.565 3535473 3538876 3545535 3555635 3569172 3586042 3606198 3629704 
905.422 3656695 3687084 3720393 3755525 3790866 3824577 3855024 3881198 
909.279 3902861 3920406 3934456 3945425 3953138 3956838 3955457 3948046 
913.136 3934275 3914636 3890445 3863502 3835734 3808826 3783998 3761944 
916.993 3742816 3726217 3711202 3696341 3679829 3659925 3635399 3605933 
920.849 3572502 3537088 3502288 3470494 3443234 3420695 3401843 3384849 
924.706 3367819 3349450 3329352 3308037 3286614 3266237 3247844 3231912 
928.563 3218580 3207780 3199385 3193243 3189066 3186322 3184239 3181862 
932.420 3178348 3173158 3166163 3157712 3148387 3138863 3129719 3121380 
936.277 3114232 3108672 3105184 3104310 3106526 3112108 3121106 3133357 
940.134 3148611 3166644 3187329 3210568 3236209 3264019 3293677 3324915 
943.991 3357685 3392271 3429205 3469126 3512453 3559206 3608947 3660982 
947.848 3714701 3769878 3826868 3886424 3949410 4016407 4087422 4161854 
951.705 4238723 4316920 4395499 4473701 4550774 4625647 4696732 4761749 
955.562 4818116 4863251 4895142 4912681 4915799 4905433 4883280 4851697 
959.419 4813409 4771501 4729160 4689423 4654775 4626662 4605308 4589649 
963.276 4577740 4567297 4556333 4543517 4528272 4510529 4490256 4467011 
967.133 4439815 4407326 4368190 4321520 4267217 4206013 4139306 4068865 
970.990 3996466 3923818 3852462 3783839 3719339 3660168 3607191 3560759 
974.847 3520613 3485926 3455655 3428845 3404916 3383821 3365953 3351872 
978.703 3342089 3336786 3335817 3338762 3345156 3354555 3366720 3381506 
982.560 3398827 3418563 3440583 3464720 3490932 3519316 3550148 3583777 
986.417 3620492 3660424 3703492 3749483 3798027 3848833 3901756 3956710 
990.274 4013661 4072418 4132550 4193377 4254030 4313636 4371516 4427324 
994.131 4481122 4533332 4584569 4635536 4686836 4739032 4792637 4848240 
997.988 4906613 4968659 5035294 5107338 5185206 5268865 5357884 5451586 
1001.845 5549317 5650792 5756200 5866218 5981846 6104091 6233770 6371321 
1005.702 6516888 6670489 6832312 7002856 7182991 7373812 7576351 7791292 
1009.559 8018816 8258588 8509981 8772444 9045786 9330499 9627680 9938898 
1013.416 10265844 10609896 10971866 11351764 11748842 12161754 12588806 
1016.791 13028176 13478124 13937098 14403637 14876470 15354210 15835342 
1020.166 16318135 16800482 17279914 17753684 18218962 18673224 19114656 
1023.540 19542676 19958054 20363036 20760986 21155902 21551878 21952606 
1026.916 22361254 22780622 23213372 23662530 24131606 24624572 25145504 
1030.291 25698062 26285004 26907748 27566322 28259400 28984592 29738578 
1033.666 30517306 31316048 32129326 32950872 33773736 34590420 35392976 
1037.041 36173300 36923204 37634648 38299992 38912292 39465596 39955316 
1040.417 40378208 40732460 41017244 41232388 41378052 41454580 41462592 
1043.792 41403260 41278708 41092204 40848280 40552640 40211700 39832324 
1047.167 39421340 38985316 38530404 38062296 37586240 37107108 36629228 
1050.542 36156480 35692228 35239356 34800412 34377660 33973132 33588560 
1053.917 33225160 32883552 32563496 32264138 31984520 31724230 31484268 
1057.293 31267602 31079454 30927044 30818806 30763558 30769644 30844268 
1060.668 30993414 31222010 31534230 31933778 32423990 33007660 33686560 
1064.043 34461020 35329572 36288880 37334040 38459120 39657788 40924052 
1067.418 42252536 43638652 45078320 46567612 48102392 49678008 51289272 
1070.794 52930552 54596008 56279872 57976688 59681396 61389464 63096804 
1074.169 64799512 66493524 68174200 69835848 71471632 73073776 74633864 
1077.544 76143216 77593280 78975200 80279352 81494584 82608064 83605768 
1080.919 84473840 85200280 85776544 86197976 86463520 86574408 86533136 
1084.295 86342552 86006448 85530352 84922480 84194064 83358984 82432536 
1087.670 81430240 80366720 79255448 78108552 76936984 75750432 74557040 
1091.045 73362992 72172512 70988120 69811296 68643192 67485264 66339244 
1094.420 65206700 64088456 62983972 61891340 60807820 59730560 58657612 
1097.796 57588500 56524336 55467360 54420148 53384916 52362960 51354540 
1101.171 50359084 49375708 48403700 47443056 46494640 45560380 44643040 
1104.546 43745972 42872844 42027312 41212820 40432460 39689064 38985280 
1107.921 38323532 37706060 37134852 36611472 36136924 35711648 35335572 
1111.297 35008164 34728644 34495920 34308536 34164584 34061696 33997096 
1114.672 33967828 33971196 34005024 34068000 34159668 34280244 34430416 
1118.047 34611048 34822968 35067008 35343912 35654264 35998248 36375220 
1121.422 36783248 37218724 37676204 38148596 38627504 39103688 39567520 
1124.798 40009128 40418508 40785524 41100208 41353224 41536728 41645120 
1128.173 41675576 41628112 41505088 41310276 41047932 40721932 40335448 
1131.548 39890960 39390344 38835192 38226996 37567120 36856912 36097892 
1134.923 35291924 34441556 33550302 32622602 31663746 30679506 29675796 
1138.299 28658498 27633240 26605528 25580748 24564206 23561154 22576616 
1141.674 21615354 20681742 19779920 18913664 18086432 17301280 16560826 
1145.049 15866917 15220626 14622128 14070801 13565357 13104093 12685004 
1148.424 12305979 11964879 11659521 11387741 11147416 10936480 10753097 
1151.800 10595577 10462510 10352601 10264662 10197489 10149914 10120746 
1155.175 10108960 10113729 10134538 10171220 10223872 10292866 10378707 
1158.550 10482021 10603601 10744359 10905452 11088325 11294733 11526779 
1161.925 11786865 12077678 12402158 12763517 13165246 13611166 14105578 
1165.301 14653310 15259823 15931168 16674018 17495384 18402556 19402830 
1168.676 20503394 21711272 23033266 24475958 26045600 27747876 29587356 
1172.051 31566906 33686836 35943972 38331024 40835740 43440260 46120744 
1175.426 48846912 51581852 54282408 56900072 59382856 61678164 63736196 
1178.802 65513564 66976464 68102736 68882888 69319752 69427336 69228968 
1182.177 68755032 68040568 67122864 66039336 64825992 63516324 62140848 
1185.552 60726684 59297484 57873124 56469740 55099564 53771364 52490884 
1188.927 51261664 50085896 48965008 47899992 46891624 45940248 45045728 
1192.302 44207312 43423668 42693052 42013492 41382872 40798984 40259636 
1195.678 39762688 39306112 38888112 38507140 38161876 37850976 37572876 
1199.053 37325500 37106332 36912404 36740832 36588980 36454864 36336988 
1202.428 36234128 36144800 36066824 35997040 35931648 35866376 35797080 
1205.803 35720120 35632612 35532244 35417072 35285152 35134492 34962992 
1209.179 34768816 34550432 34306832 34037448 33742024 33420426 33072708 
1212.554 32699090 32300416 31878108 31434480 30972430 30495278 30006334 
1215.929 29508662 29004828 28496898 27986514 27475136 26964050 26454508 
1219.304 25947752 25445056 24947656 24456776 23973586 23499182 23034488 
1222.680 22580242 22136932 21704740 21283654 20873528 20474132 20085252 
1226.055 19706758 19338614 18980870 18633700 18297336 17972120 17658442 
1229.430 17356754 17067424 16790742 16526747 16275325 16036123 15808617 
1232.805 15592207 15386280 15190288 15003730 14826138 14657174 14496450 
1236.181 14343604 14198241 14059950 13928294 13802786 13682893 13568081 
1239.556 13457821 13351680 13249317 13150588 13055500 12964262 12877205 
1242.931 12794742 12717362 12645480 12579446 12519477 12465541 12417340 
1246.306 12374352 12335915 12301350 12270163 12242226 12217835 12197663 
1249.682 12182631 12173697 12171537 12176472 12188382 12206802 12231091 
1253.057 12260590 12294827 12333511 12376578 12424087 12476185 12532970 
1256.432 12594485 12660630 12731141 12805550 12883107 12962821 13043538 
1259.807 13124080 13203405 13280778 13355786 13428365 13498592 13566473 
1263.183 13631742 13693725 13751340 13803115 13847438 13882658 13907376 
1266.558 13920492 13921218 13909090 13883920 13845603 13794172 13729608 
1269.933 13651930 13561064 13457035 13339897 13209864 13067317 12912802 
1273.308 12746881 12570176 12383202 12186362 11980063 11764757 11541151 
1276.684 11310177 11073106 10831310 10586080 10338480 10089219 9838729 
1280.059 9587385 9335771 9084847 8836117 8591422 8352833 8122302 7901527 
1283.916 7691885 7494510 7310410 7140602 6986075 6847714 6726152 6621649 
1287.774 6534104 6463154 6408316 6369275 6345840 6338040 6345876 6369202 
1291.631 6407433 6459473 6523647 6597830 6679500 6766009 6854678 6943035 
1295.489 7028958 7110761 7187231 7257682 7321737 7379294 7430324 7474889 
1299.346 7513088 7545198 7571684 7593282 7610949 7625633 7638155 7649033 
1303.203 7658443 7666366 7672635 7677164 7679962 7681134 7680680 7678485 
1307.061 7674198 7667418 7657856 7645514 7630749 7614241 7596698 7578681 
1310.918 7560368 7541648 7522259 7502153 7481696 7461749 7443466 7427976 
1314.776 7415997 7407607 7402276 7399112 7397180 7395874 7395003 7394819 
1318.633 7395629 7397737 7401097 7405478 7410563 7416117 7422171 7429008 
1322.490 7436984 7446391 7457293 7469554 7482958 7497443 7513287 7531127 
1326.348 7551916 7576678 7606327 7641560 7682744 7730064 7783463 7842803 
1330.205 7907828 7978052 8052873 8131545 8213367 8297917 8385102 8475285 
1334.063 8569033 8666948 8769439 8876577 8988080 9103554 9222663 9345325 
1337.920 9471724 9602184 9736979 9876236 10019787 10167421 10318960 10474546 
1341.778 10634707 10800312 10972364 11151791 11339203 11534868 11738744 
1345.153 11950605 12170145 12397068 12631018 12871478 13117670 13368480 
1348.528 13622472 13878059 14133589 14387435 14638141 14884472 15125233 
1351.903 15359336 15585557 15802519 16008545 16201751 16380009 16541193 
1355.279 16683471 16805406 16906262 16985964 17045000 17084282 17104990 
1358.654 17108492 17096358 17070468 17033034 16986542 16933652 16876880 
1362.029 16818352 16759600 16701321 16643532 16585518 16526130 16463652 
1365.404 16396043 16320771 16234972 16135445 16018987 15882663 15724312 
1368.780 15542975 15339342 15116058 14877890 14631793 14386669 14153165 
1372.155 13943230 13769493 13644566 13580129 13585913 13668628 13831060 
1375.530 14071400 14383094 14755103 15172672 15618563 16074416 16522120 
1378.905 16945162 17329348 17663298 17938180 18147460 18286302 18351326 
1382.281 18340590 18253718 18092086 17859108 17559872 17200958 16789998 
1385.656 16335161 15844801 15327112 14789692 14239340 13681731 13121308 
1389.031 12561359 12004235 11451729 10905363 10366706 9837572 9319907 
1392.406 8815884 8327896 7858423 7410040 6985267 6586390 6215214 5872879 
1396.264 5559733 5275372 5018783 4788514 4582835 4399846 4237590 4094009 
1400.121 3967007 3854515 3754573 3665476 3585827 3514505 3450643 3393501 
1403.979 3342300 3296183 3254209 3215362 3178678 3143375 3108947 3075196 
1407.836 3042284 3010663 2981006 2954029 2930432 2910640 2894785 2882584 
1411.693 2873510 2866833 2861926 2858350 2856092 2855329 2856434 2859599 
1415.551 2864715 2871261 2878411 2885299 2891306 2896273 2900613 2905118 
1419.408 2910720 2918155 2927801 2939671 2953625 2969613 2987884 3009062 
1423.266 3033926 3063162 3097069 3135475 3177845 3223550 3272287 3324199 
1427.123 3379978 3440597 3506961 3579685 3658924 3744515 3836256 3934164 
1430.980 4038585 4150275 4270092 4398964 4537739 4687426 4849490 5026043 
1434.838 5220123 5435385 5675813 5945118 6246469 6582223 6954225 7364037 
1438.695 7813208 8303307 8835582 9410457 10026912 10682192 11371574 12088613 
1442.553 12825479 13573341 14322875 15064619 15789481 16489118 17156268 
1445.928 17784900 18370124 18907998 19395378 19829860 20209994 20535438 
1449.303 20807158 21027138 21198100 21322752 21403390 21441508 21437926 
1452.678 21392864 21306268 21177882 21007248 20793728 20536508 20234968 
1456.054 19889122 19500118 19070452 18603852 18104806 17577984 17027694 
1459.429 16457671 15871008 15270472 14658576 14037965 13411424 12782159 
1462.804 12153808 11530649 10917416 10319097 9740490 9185602 8657259 8157004 
1466.662 7685332 7242132 6827230 6440800 6083426 5755787 5458277 5190414 
1470.519 4950459 4735360 4540950 4362413 4195025 4034941 3879661 3728336 
1474.376 3581705 3441574 3310160 3189446 3080677 2984085 2899037 2824305 
1478.234 2758464 2700159 2648259 2601830 2560045 2522040 2487068 2454481 
1482.091 2423932 2395404 2369025 2344883 2322723 2301856 2281278 2259959 
1485.949 2237231 2213095 2188295 2164116 2141942 2122744 2106871 2093923 
1489.806 2082992 2073009 2063118 2052830 2042107 2031114 2020167 2009408 
1493.664 1998904 1988568 1978339 1968131 1957948 1947811 1937817 1928145 
1497.521 1919055 1910907 1904088 1898922 1895426 1893287 1891874 1890307 
1501.378 1887893 1884155 1879166 1873327 1867321 1861752 1857016 1853123 
1505.236 1849869 1846890 1843882 1840657 1837179 1833343 1829043 1823994 
1509.093 1817976 1810859 1802777 1794145 1785503 1777458 1770397 1764450 
1512.951 1759513 1755356 1751794 1748765 1746338 1744573 1743442 1742763 
1516.808 1742105 1741053 1739231 1736442 1732762 1728357 1723484 1718354 
1520.666 1713144 1707956 1702941 1698306 1694315 1691217 1689137 1688019 
1524.523 1687662 1687682 1687682 1687328 1686393 1684861 1682787 1680395 
1528.380 1677964 1675818 1674190 1673216 1672916 1672986 1672998 1672353 
1532.238 1670584 1667397 1662905 1657552 1652038 1647106 1643353 1641069 
1536.095 1640249 1640670 1642041 1644075 1646554 1649322 1652150 1654748 
1539.953 1656762 1657799 1657643 1656141 1653386 1649455 1644470 1638418 
1543.810 1631125 1622482 1612434 1601190 1589192 1577094 1565567 1555152 
1547.667 1546123 1538480 1531961 1526200 1520846 1515593 1510343 1504968 
1551.525 1499443 1493810 1488158 1482650 1477544 1473172 1469771 1467478 
1555.382 1466132 1465359 1464590 1463205 1460784 1457202 1452773 1448163 
1559.240 1444262 1441921 1441648 1443451 1446846 1450940 1454735 1457406 
1563.097 1458517 1458115 1456748 1455116 1453954 1453607 1454139 1455149 
1566.955 1456191 1456878 1457146 1457259 1457750 1459175 1461882 1465909 
1570.812 1470953 1476575 1482319 1487879 1493245 1498472 1503696 1508886 
1574.669 1513898 1518433 1522175 1524953 1526750 1527703 1528074 1528028 
1578.527 1527687 1527035 1526041 1524762 1523337 1522007 1521015 1520460 
1582.384 1520345 1520443 1520547 1520414 1520051 1519542 1519091 1518855 
1586.242 1518849 1518822 1518477 1517470 1515672 1513259 1510742 1508805 
1590.099 1508153 1509203 1512036 1516268 1521256 1526216 1530509 1533779 
1593.957 1536047 1537591 1538856 1540240 1542009 1544194 1546765 1549678 
1597.814 1553053 1557183 1562534 1569519 1578342 1588804 1600321 1611971 
1601.671 1622825 1632127 1639653 1645612 1650726 1655821 1661611 1668461 
1605.529 1676307 1684747 1693247 1701344 1708879 1715981 1723023 1730380 
1609.386 1738361 1746991 1756142 1765584 1775125 1784695 1794452 1804588 
1613.244 1815341 1826804 1838851 1851182 1863374 1874947 1885550 1894961 
1617.101 1903178 1910331 1916625 1922255 1927382 1932076 1936353 1940135 
1620.958 1943391 1946062 1948204 1949872 1951247 1952546 1954038 1955974 
1624.816 1958536 1961709 1965331 1969017 1972294 1974614 1975626 1975179 
1628.673 1973484 1971037 1968528 1966645 1965888 1966464 1968240 1970840 
1632.531 1973713 1976360 1978408 1979693 1980266 1980338 1980197 1980173 
1636.388 1980646 1981893 1984105 1987257 1991124 1995194 1998826 2001308 
1640.246 2002148 2001098 1998320 1994275 1989556 1984684 1979904 1975155 
1644.103 1970196 1964719 1958611 1952046 1945512 1939590 1934882 1931708 
1647.960 1930148 1930000 1931002 1932925 1935658 1939207 1943595 1948773 
1651.818 1954459 1960228 1965618 1970239 1974035 1977202 1980190 1983569 
1655.675 1987745 1992916 1999032 2005824 2012953 2020182 2027513 2035130 
1659.533 2043459 2052915 2063825 2076205 2089760 2103836 2117666 2130435 
1663.390 2141679 2151302 2159692 2167490 2175532 2184427 2194471 2205501 
1667.248 2217103 2228627 2239595 2249771 2259276 2268461 2277772 2287552 
1671.105 2297905 2308652 2319521 2330193 2340475 2350341 2359996 2369714 
1674.962 2379863 2390753 2402700 2416011 2430911 2447552 2465959 2485974 
1678.820 2507232 2529182 2551260 2572883 2593751 2613729 2633019 2651954 
1682.677 2671044 2690795 2711721 2734258 2758730 2785301 2813951 2844380 
1686.535 2876152 2908693 2941453 2973982 3006153 3038081 3070139 3102941 
1690.392 3137113 3173256 3211818 3253099 3297199 3344073 3393498 3445176 
1694.250 3498826 3554134 3610989 3669400 3729691 3792205 3857390 3925514 
1698.107 3996773 4071159 4148613 4229124 4312888 4400337 4492122 4588923 
1701.964 4691321 4799796 4914564 5035720 5163416 5297793 5439098 5587620 
1705.822 5743515 5906806 6077342 6254915 6439490 6631212 6830691 7038815 
1709.679 7256701 7485302 7725358 7977048 8240192 8514205 8798352 9091938 
1713.537 9394408 9705402 10024657 10352005 10687416 11030768 11382075 
1716.912 11741225 12108132 12482503 12863955 13252091 13646597 14047468 
1720.287 14455180 14870670 15295339 15730850 16179164 16642399 17123132 
1723.662 17624494 18150500 18705850 19295908 19926078 20601610 21327090 
1727.038 22106590 22943840 23842632 24807072 25841924 26952488 28144684 
1730.413 29425020 30800896 32280802 33874448 35592292 37444676 39440320 
1733.788 41585012 43880752 46326316 48918588 51654856 54534276 57558436 
1737.163 60729932 64049836 67514360 71112520 74824704 78623424 82475152 
1740.539 86342504 90185680 93963424 97632800 101150152 104472184 107558688 
1743.914 110374560 112891424 115087632 116947576 118461248 119624664 
1746.807 120441064 120922064 121086624 120958808 120563480 119923016 
1749.700 119055120 117973936 116691920 115222672 113581768 111786152 
1752.593 109851920 107792344 105616816 103332104 100944112 98460968 95894064 
1755.968 93258848 90573424 87857160 85128728 82405264 79701776 77031304 
1759.344 74404880 71832192 69321392 66879648 64513220 62228060 60029464 
1762.719 57921964 55908616 53990428 52165992 50431740 48782600 47213200 
1766.094 45718624 44295196 42940296 41651992 40428220 39266204 38162160 
1769.469 37111512 36109128 35149948 34229096 33342058 32484382 31651818 
1772.844 30839940 30044482 29261296 28486658 27717274 26950424 26183910 
1776.220 25416174 24646284 23874090 23099982 22324956 21550236 20777204 
1779.595 20007256 19241888 18482746 17731868 16991552 16264394 15553050 
1782.970 14860015 14187570 13537802 12912527 12313436 11741921 11199108 
1786.345 10685427 10200681 9743926 9313699 8908316 8526257 8166396 7828349 
1790.203 7512139 7218323 6947313 6699066 6472778 6266685 6078151 5904008 
1794.060 5741006 5586284 5437824 5294588 5156534 5024353 4899081 4781701 
1797.918 4672907 4572945 4481593 4398355 4322581 4253581 4190654 4133138 
1801.775 4080251 4031119 3984695 3939920 3895675 3851012 3805133 3757657 
1805.633 3708460 3657964 3606855 3556115 3506747 3459581 3415067 3373232 
1809.490 3333720 3296007 3259486 3223783 3188626 3153849 3119106 3083867 
1813.347 3047426 3009341 2969600 2929203 2890066 2854795 2826027 2805581 
1817.205 2793624 2788469 2786725 2784255 2777077 2762728 2740506 2711587 
1821.062 2678282 2643388 2609084 2576655 2546187 2517074 2488406 2459658 
1824.920 2430806 2402548 2375887 2351657 2330048 2310308 2290738 2269193 
1828.777 2243584 2212866 2177246 2138521 2099353 2062587 2030165 2002494 
1832.635 1978398 1955591 1931640 1905063 1875743 1845131 1815360 1788559 
1836.492 1765839 1747034 1730823 1715578 1699874 1683174 1665630 1647713 
1840.349 1629622 1611035 1591129 1569325 1545525 1520755 1496776 1475579 
1844.207 1458459 1445571 1435678 1426871 1417214 1405684 1392232 1377884 
1848.064 1363881 1351298 1340462 1331329 1323574 1317207 1312307 1309133 
1851.922 1307172 1305261 1301289 1293066 1279022 1259133 1234900 1209158 
1855.779 1184741 1163600 1146023 1130930 1116488 1101448 1085784 1071077 
1859.636 1059655 1053854 1054715 1061735 1072991 1086099 1098928 1110313 
1863.494 1119990 1128108 1134370 1137821 1136692 1129244 1114312 1092253 
1867.351 1064966 1035757 1008411 986575 972894 968850 974468 988672 1009313 
1871.691 1033530 1057962 1079440 1095322 1104306 1106353 1102797 1095524 
1875.548 1086265 1075786 1063816 1049189 1030973 1009180 985523 963259 
1879.406 946622 939449 944133 960610 986593 1017673 1048698 1074682 1091922 
1883.745 1098343 1093961 1080364 1060446 1037512 1014800 994822 979047 
1887.603 967601 959809 954079 948959 942988 935476 926003 914784 902204 
1891.942 889088 876392 865548 857863 854576 856055 861735 869747 877771 
1896.282 883062 883871 879387 870066 857004 841516 824320 805733 785678 
1900.622 764494 743133 723507 707773 697876 694696 698096 707129 720923 
1904.961 739291 763126 793579 831535 875747 922874 967025 1001584 1020659 
1909.301 1021160 1003650 972557 934731 897780 867854 848543 839877 839147 
1913.640 841818 843107 839455 829758 815461 800513 789662 787276 795081 
1917.980 811437 830842 845314 846541 828692 790429 736251 675208 618997 
1922.320 578155 559307 562751 582961 609999 633165 644193 639969 622684 
1926.659 599003 576679 562240 558020 562199 569251 572856 567977 553258 
1930.999 531122 507043 486809 474599 470898 472601 474162 470265 457683 
1935.338 437278 412929 390657 375490 370174 373445 381756 390395 396244 
1939.678 398550 399366 401378 406525 413659 418915 416316 401256 371708 
1944.018 330658 285050 244091 215907 205709 213234 234171 260540 283680 
1948.357 296232 294083 277158 249756 218897 193670 182165 189617 215943 
1952.697 255669 298336 332435 348489 343854 323583 300447 289926 305702 
1957.036 353347 428684 517444 601158 662308 691494 689543 667216 639496 
1961.376 620412 617835 632474 658821 689641 717797 738302 746849 739072 
1965.716 708441 648814 556367 434929 297294 165810 66503 23307 48701 140647 
1970.537 280528 438847 582567 684944 731080 721647 669524 596213 523771 
1974.877 471695 452169 470392 524638 608675 711753 822003 926684 1016323 
1979.217 1085616 1135415 1171798 1203502 1237836 1278385 1320172 1352029 
1983.074 1357578 1321776 1235723 1102676 937970 767665 621092 523306 487953 
1987.414 514160 586343 681561 775379 850452 898823 923092 931396 933369 
1991.753 934522 935429 931698 918693 893944 860675 826748 802479 796260 
1996.093 811565 844212 884467 917964 931514 915095 865384 785290 683557 
2000.432 571352 460517 359791 274736 206625 154647 116818 92631 83161 91578 
2005.254 119259 164737 220356 273917 311169 322707 307619 277191 250256 
2009.594 247552 281753 351512 439326 517574 556789 538960 463687 352105 
2013.933 238384 159626 141789 191926 295652 424835 546638 635949 681366 
2018.273 686847 665104 631065 592954 551028 497723 423347 321122 190984 
2022.613 38635 -125557 -291367 -449338 -592423 -712767 -801355 -846579 
2026.470 -837277 -765584 -632454 -449318 -239001 -30486 146376 269823 329097 
2030.810 328628 283694 217461 153296 110218 97653 115250 152483 194242 
2035.149 224210 231559 212576 173526 127823 93630 87643 122198 200012 314251 
2039.971 448729 582707 695438 771528 804924 799808 768483 727796 692588 
2044.311 672814 670030 679884 694293 706832 715742 725668 744987 781589 
2048.650 837790 907344 975371 1023719 1036132 1004715 931219 827778 712671 
2052.990 606775 527930 487516 487576 521754 577584 640919 699665 745770 
2057.329 775712 789409 787929 773086 745695 707100 659406 607178 556695 
2061.669 515636 490355 484189 494728 514227 530595 531090 505986 452487 
2066.009 375840 289118 209180 152568 130383 146187 195044 266620 348104 
2070.348 429106 502829 567606 624760 676587 724327 767404 803436 830371 
2074.688 847001 854312 854510 850390 843649 834564 821830 803930 779689 
2079.027 749734 716178 682591 652556 629438 615023 610040 613529 623802 
2083.367 638287 654310 669411 682301 692804 702317 712664 725408 740216 
2087.707 754036 761263 755131 729435 681312 612121 528235 439077 355586 
2092.046 287353 241472 221407 227932 259101 311481 379834 457674 536938 
2096.386 609425 667642 707180 726909 729844 721068 706183 688735 669740 
2100.725 647334 619182 583940 543406 502507 468149 446948 443190 456893 
2105.065 484535 519642 555431 586347 609642 625402 636234 645834 658354 
2109.405 676865 702911 735897 773256 810279 841599 861796 867335 856790 
2113.744 831950 796846 756956 717637 683621 657878 642208 636901 641335 
2118.084 653615 670548 687492 699288 700763 688959 663263 626203 582010 
2122.423 535123 487857 439837 388110 329361 261994 188239 114227 48432 -1839 
2127.245 -33141 -48827 -57921 -73496 -108081 -170267 -261313 -375297 -500043 
2131.585 -620932 -723762 -798531 -840860 -852615 -841149 -816962 -791137 
2135.442 -772261 -763620 -762894 -762153 -751606 -722423 -671472 -602764 
2139.300 -527991 -462943 -423582 -420980 -458773 -532466 -632333 -745633 
2143.157 -861442 -970729 -1067543 -1146796 -1204448 -1236972 -1244168 
2146.532 -1230313 -1206324 -1187243 -1189631 -1225117 -1296830 -1397555 
2149.907 -1512293 -1623097 -1716268 -1786517 -1839277 -1888356 -1951969 
2153.283 -2046375 -2182600 -2362761 -2581050 -2823003 -3068052 -3289760 
2156.658 -3457904 -3541111 -3513077 -3360552 -3091512 -2737662 -2349655 
2160.033 -1982844 -1683684 -1478343 -1370732 -1344717 -1373320 -1424602 
2163.408 -1470311 -1488953 -1470000 -1414024 -1332183 -1242883 -1168004 
2166.784 -1126719 -1132270 -1187070 -1283619 -1405409 -1532166 -1643871 
2170.159 -1726052 -1770727 -1777552 -1751451 -1699353 -1627690 -1541875 
2173.534 -1444844 -1340320 -1232220 -1127870 -1035749 -965436 -924342 
2176.909 -916018 -938031 -982525 -1036669 -1085933 -1116249 -1117167 
2180.285 -1084083 -1019212 -930211 -828576 -724520 -626172 -536079 -452867 
2184.142 -372889 -294215 -217832 -149018 -95783 -66329 -66199 -97070 -155385 
2188.482 -233880 -322472 -409938 -484187 -534290 -551022 -529854 -472251 
2192.339 -387940 -293269 -208731 -152168 -134314 -153774 -197040 -242592 
2196.197 -267878 -256847 -206141 -125214 -33480 46857 97851 111114 88773 
2200.536 41399 -17099 -73291 -118102 -146722 -158297 -153711 -135605 -106778 
2204.876 -71732 -34986 -1395 26517 49402 71777 100250 141245 196983 264324 
2209.698 333746 393087 430305 438325 416546 371590 314448 257653 211223 
2214.037 181558 170182 175241 192473 217200 244587 271169 294666 314516 
2218.377 331856 349597 370967 398679 433224 472898 513064 548438 574195 
2222.716 587849 589688 582515 569935 555586 541553 528665 517196 507474 
2227.056 500426 496907 496710 498191 497081 488316 467417 432928 387683 
2231.396 339078 297212 272648 272774 299883 350266 415505 484269 546036 
2235.735 593207 623418 639217 647159 655404 671337 698850 737946 783776 
2240.075 829258 866489 889610 896187 887452 867130 839646 807990 773326 
2244.414 734980 692341 646317 601187 563288 540081 536686 554019 587105 
2248.754 626508 660489 679131 676746 654120 617489 577247 544215 527469 
2253.094 532100 558876 604500 662896 726297 787016 838179 875140 895994 
2257.433 902111 897562 888360 880485 878943 885688 899858 917922 935083 
2261.773 946525 948967 941062 923799 899817 873386 849486 833484 830012 
2266.112 842622 872156 916624 970985 1028285 1080938 1122957 1151021 1165366 
2270.452 1168445 1164468 1157039 1148870 1141154 1134441 1129097 1126159 
2274.309 1126840 1132164 1142073 1155283 1169515 1182938 1194964 1207148 
2278.167 1222610 1244938 1276046 1315274 1358839 1401137 1436616 1462056 
2282.024 1477697 1487444 1497065 1512306 1536647 1570200 1609572 1649507 
2285.882 1684151 1708903 1721104 1720426 1708103 1686297 1657440 1623838 
2289.739 1587589 1550790 1515369 1483336 1456463 1436095 1422881 1416707 
2293.596 1416481 1420363 1425991 1430764 1432546 1430061 1423230 1413231 
2297.454 1402102 1392158 1385269 1382331 1382915 1385886 1389638 1392891 
2301.311 1394984 1395972 1396373 1396805 1397701 1399263 1401545 1404735 
2305.169 1408955 1414325 1420386 1426164 1430052 1430405 1426244 1417760 
2309.026 1406666 1395724 1387835 1385207 1388461 1396703 1407962 1420214 
2312.884 1432045 1443353 1454993 1468321 1484333 1503414 1525155 1548826 
2316.741 1573690 1599506 1626346 1654617 1684775 1717424 1753435 1794185 
2320.598 1841052 1894871 1954418 2015328 2069794 2107509 2117993 2093454 
2324.456 2031178 1934957 1814272 1682641 1554493 1442157 1353638 1291397 
2328.313 1252809 1231869 1221219 1214518 1207401 1197961 1186080 1172702 
2332.171 1159070 1146412 1135790 1128284 1124694 1125504 1130423 1138255 
2336.028 1147029 1154587 1159000 1159192 1155067 1147320 1137008 1125290 
2339.885 1113153 1101616 1091737 1084717 1081819 1083862 1090722 1101164 
2343.743 1112939 1123517 1130574 1133156 1131369 1126564 1120475 1114486 
2347.600 1109172 1104272 1098898 1092405 1084478 1075518 1066239 1057407 
2351.458 1049319 1041779 1034230 1026315 1018059 1010052 1003335 998781 
2355.315 996756 996794 997676 997841 995892 991158 983669 974268 964067 
2359.655 954179 945148 937021 929200 920736 910627 898163 883064 865853 
2363.994 847525 829587 813683 801155 792723 788349 787151 787951 789464 
2368.334 790937 792158 793656 796160 800421 806822 815404 825771 837531 
2372.674 850280 863780 877581 891001 902864 911835 916595 916598 912295 
2377.013 905433 898584 894721 896103 903965 917812 935844 955263 973037 
2381.353 986584 994313 995781 991750 983843 974235 965294 959110 957118 
2385.692 959904 967121 977501 989085 999843 1007890 1012153 1012430 1009652 
2390.032 1005338 1001438 999593 1000618 1004173 1008801 1012127 1011746 
2393.889 1005919 994348 978471 961317 946658 937852 936863 943575 955935 
2398.229 970651 984315 994536 1000484 1002812 1002877 1001906 1000115 996836 
2402.569 990744 980992 967862 953354 940722 933667 934915 945624 964601 
2406.908 989039 1015136 1039267 1058746 1072044 1078711 1079177 1074148 
2410.766 1064825 1052626 1039528 1027717 1019245 1015525 1016745 1021706 
2414.623 1028203 1033620 1036009 1034591 1030189 1024693 1020514 1019398 
2418.480 1022021 1027509 1034093 1039441 1041624 1039604 1033540 1024614 
2422.338 1014648 1005610 999188 996306 997234 1001325 1007422 1013911 
2426.195 1019185 1021986 1021685 1018364 1012693 1005745 998649 992062 
2430.053 986342 981458 977173 973431 970510 968677 968300 969240 970881 
2434.392 972131 971811 969153 964320 958483 953792 952596 956990 968013 
2438.732 985501 1007886 1032839 1057489 1079083 1095181 1103964 1104255 
2442.589 1095724 1078930 1055550 1028077 999931 974593 955137 943584 940531 
2446.929 945338 956447 971785 989603 1008316 1026793 1043896 1058531 1069336 
2451.269 1075314 1075919 1071617 1063825 1054823 1046935 1042009 1040760 
2455.126 1042837 1046936 1051440 1055107 1057394 1058531 1059281 1060361 
2458.983 1062281 1064983 1067875 1070110 1070847 1069541 1065994 1060303 
2462.841 1053069 1044975 1037077 1030305 1025667 1023609 1024271 1026962 
2466.698 1030596 1033612 1034565 1032273 1026207 1016323 1003282 988138 
2470.556 972347 957510 945404 937293 934120 935633 940470 946425 950811 
2474.895 951625 948302 941883 935180 931687 934336 944372 960661 979940 
2479.235 997872 1010198 1014368 1009903 998507 983225 967126 952641 940900 
2483.574 931902 925367 920923 918901 920009 925139 934558 947673 962939 
2487.914 978147 991291 1001037 1007275 1011117 1014494 1019548 1027769 
2491.771 1039621 1054287 1069804 1083702 1093710 1098320 1097339 1091713 
2495.629 1083422 1074836 1068177 1065058 1066709 1073502 1085606 1102635 
2499.486 1123547 1146371 1168220 1185223 1193495 1189971 1173764 1146524 
2503.344 1112526 1077563 1047322 1025740 1014015 1010514 1011781 1014022 
2507.201 1014929 1014353 1014196 1017453 1026619 1042320 1062934 1084685 
2511.059 1102995 1113672 1114147 1104000 1084903 1059680 1031795 1004496 
2514.916 980523 961876 949817 944836 946556 953686 964245 975836 986254 
2519.256 993998 998822 1001608 1004034 1008019 1014890 1024911 1037197 
2523.113 1049793 1060394 1066862 1067928 1063376 1054386 1042834 1031144 
2526.970 1021427 1015368 1013457 1015443 1020245 1026572 1033029 1038625 
2530.828 1042548 1044313 1043665 1040450 1034812 1027409 1019420 1012427 
2534.685 1008128 1007896 1012064 1020017 1030152 1040505 1049335 1055859 
2538.543 1060229 1063420 1066808 1071455 1077854 1085906 1095151 1105218 
2542.400 1115927 1127212 1138885 1150078 1159436 1165211 1165858 1160999 
2546.258 1151483 1139671 1128641 1121316 1119405 1123012 1130477 1139029 
2550.115 1145877 1148749 1146789 1140676 1132281 1124259 1119250 1119393 
2553.972 1125631 1137532 1153252 1169837 1183786 1192185 1193266 1187385 
2557.830 1176628 1164746 1155593 1152367 1156380 1167081 1182186 1198842 
2561.687 1214263 1226782 1235778 1241438 1244231 1244361 1241674 1236107 
2565.545 1227891 1217979 1208210 1200708 1197305 1199069 1205840 1216306 
2569.402 1228506 1240376 1250254 1257190 1260821 1261643 1260483 1258633 
2573.260 1257576 1258708 1263007 1270646 1280593 1290846 1298703 1301831 
2577.117 1298982 1290663 1279154 1267909 1260645 1260086 1267341 1281734 
2580.974 1301169 1323141 1345290 1365988 1384271 1399634 1411460 1418981 
2584.832 1421240 1417567 1407993 1393567 1376170 1358412 1342699 1331070 
2588.689 1324652 1323797 1328063 1336594 1348031 1360802 1372937 1382625 
2592.547 1388352 1389584 1387041 1382801 1379699 1380617 1387194 1399250 
2596.404 1414466 1429018 1438853 1440864 1434121 1420157 1402360 1384935 
2600.261 1371422 1363756 1361915 1364332 1368782 1373461 1377426 1380789 
2604.119 1384181 1388150 1392549 1396661 1399480 1400325 1399482 1398211 
2607.976 1398355 1401606 1408622 1418695 1429719 1438996 1444072 1443620 
2611.834 1437953 1428831 1418900 1410930 1407008 1408223 1414491 1424868 
2615.691 1437804 1451457 1463983 1473669 1479203 1480029 1476373 1469551 
2619.549 1461645 1455109 1452202 1454325 1461710 1473638 1488495 1504565 
2623.406 1520379 1534958 1547790 1558637 1567247 1573392 1576813 1577508 
2627.263 1575989 1573197 1570448 1568953 1569603 1572612 1577733 1584243 
2631.121 1591517 1599014 1606568 1614151 1621791 1629390 1636699 1643507 
2634.978 1649600 1655066 1660110 1664969 1669714 1674143 1677713 1679820 
2638.836 1680056 1678313 1674954 1670707 1666324 1662500 1659447 1657041 
2642.693 1654873 1652421 1649382 1645585 1641361 1637242 1633887 1631997 
2646.551 1631965 1633997 1637765 1642744 1647992 1652637 1655868 1657193 
2650.408 1656488 1653938 1649828 1644531 1638154 1630838 1622602 1613632 
2654.265 1604285 1595168 1586814 1579654 1573695 1568529 1563442 1557629 
2658.123 1550352 1541295 1530227 1517245 1502430 1485825 1467538 1447899 
2661.980 1427551 1407431 1388647 1372136 1358354 1347141 1337773 1329359 
2665.838 1321139 1312979 1305103 1298216 1292748 1288735 1285428 1281636 
2669.695 1276206 1268396 1258347 1247069 1236048 1226742 1219983 1215818 
2673.552 1213620 1212604 1212133 1212289 1213502 1216551 1221780 1228830 
2677.410 1236510 1243109 1246938 1246929 1243152 1236610 1229051 1222253 
2681.267 1217508 1215150 1214588 1214689 1214045 1211900 1207904 1202566 
2685.125 1196913 1192058 1188873 1187864 1188869 1191367 1194586 1197716 
2688.982 1200181 1201629 1202016 1201448 1200105 1198122 1195561 1192396 
2692.840 1188535 1183988 1178737 1172916 1166777 1160600 1154665 1149233 
2696.697 1144503 1140593 1137566 1135350 1133847 1132902 1132382 1132196 
2700.554 1132471 1133359 1135134 1138094 1142384 1147905 1154306 1160935 
2704.412 1167079 1172066 1175417 1177075 1177212 1176289 1174877 1173446 
2708.269 1172314 1171508 1170737 1169694 1167862 1164985 1161056 1156445 
2712.127 1151932 1148588 1147530 1149659 1155248 1163900 1174373 1184941 
2715.984 1193714 1199027 1199958 1196496 1189395 1180081 1170182 1161108 
2719.842 1153971 1149179 1146733 1146199 1146939 1148263 1149441 1149881 
2723.699 1149238 1147317 1144358 1140868 1137632 1135526 1135180 1136932 
2727.556 1140582 1145547 1151062 1156433 1161222 1165437 1169297 1173140 
2731.414 1177031 1180740 1183600 1184888 1183981 1180778 1175770 1170030 
2735.271 1164845 1161490 1160642 1162550 1166793 1172596 1179069 1185463 
2739.129 1191043 1195397 1198046 1198551 1196541 1191981 1185226 1177285 
2742.986 1169471 1163370 1160169 1160309 1163368 1168175 1173102 1176818 
2746.844 1178514 1178270 1176988 1175705 1175350 1176283 1178016 1179603 
2750.701 1179819 1177780 1173180 1166369 1158212 1149702 1141705 1134821 
2754.558 1129142 1124659 1121271 1119024 1117985 1118383 1120146 1123082 
2758.416 1126645 1130090 1132632 1133744 1133166 1131204 1128446 1125900 
2762.273 1124516 1125129 1128051 1132999 1139141 1145212 1149778 1151727 
2766.131 1150558 1146622 1141120 1135728 1132278 1132198 1136035 1143309 
2769.988 1152561 1161788 1168832 1172039 1170509 1164489 1155045 1143965 
2773.845 1133235 1124589 1119106 1117119 1118242 1121574 1126096 1131065 
2777.703 1136195 1141716 1148151 1156029 1165360 1175552 1185235 1192773 
2781.560 1196647 1196017 1191066 1183134 1174324 1166993 1163088 1163606 
2785.418 1168504 1176758 1186872 1197446 1207587 1217060 1226154 1235486 
2789.275 1245400 1255823 1266054 1275149 1282098 1286311 1287917 1287663 
2793.133 1286809 1286536 1287778 1290704 1294905 1299463 1303442 1306261 
2796.990 1307938 1309082 1310647 1313610 1318467 1325248 1333364 1341951 
2800.847 1350130 1357317 1363361 1368450 1372930 1377131 1381126 1384812 
2804.705 1387964 1390402 1392108 1393278 1394194 1395130 1396283 1397727 
2808.562 1399341 1401078 1402957 1405100 1407762 1411235 1415784 1421738 
2812.420 1429336 1438859 1450519 1464288 1479902 1496639 1513402 1528945 
2816.277 1542151 1552301 1559412 1564227 1568012 1572320 1578474 1587422 
2820.135 1599554 1614655 1632208 1651473 1671630 1691826 1711196 1728964 
2823.992 1744367 1756853 1766287 1772970 1777785 1782041 1787287 1795120 
2827.849 1806797 1823177 1844465 1870123 1898936 1929261 1959157 1986828 
2831.707 2011092 2031438 2048396 2063234 2077697 2093608 2112374 2134875 
2835.564 2161299 2191372 2224658 2260702 2299240 2340352 2384214 2431368 
2839.422 2482385 2538060 2599352 2667458 2743477 2828662 2924126 3031104 
2843.279 3150870 3285082 3435509 3603849 3790746 3995029 4212605 4435944 
2847.136 4654118 4853956 5021503 5144282 5213257 5224381 5179028 5083670 
2850.994 4948560 4785819 4607881 4425712 4247851 4080052 3925337 3784727 
2854.851 3657634 3542855 3438961 3344646 3258865 3180651 3109121 3043227 
2858.709 2982013 2924407 2869716 2817640 2768194 2721823 2678894 2639868 
2862.566 2604821 2573821 2546972 2524682 2507849 2497665 2495442 2502314 
2866.424 2518598 2543828 2576626 2615120 2657201 2701234 2746015 2791274 
2870.281 2837178 2884330 2933356 2984658 3038231 3093796 3150566 3207731 
2874.138 3264365 3319653 3373018 3424198 3473134 3519928 3564617 3607177 
2877.996 3647232 3684229 3717398 3746033 3769581 3787818 3800701 3808502 
2881.853 3811629 3810564 3805885 3798259 3788583 3777801 3766868 3756633 
2885.711 3747567 3739908 3733477 3727941 3723074 3718925 3715711 3713876 
2889.568 3713934 3716250 3720994 3728067 3737443 3749102 3763206 3780061 
2893.426 3799928 3822956 3849012 3877773 3908725 3941319 3975200 4010120 
2897.283 4045845 4082116 4118459 4154378 4189344 4223011 4255265 4286355 
2901.140 4316547 4346158 4375339 4404146 4432620 4461240 4490881 4522983 
2904.998 4559284 4601577 4651070 4708474 4773903 4847266 4928516 5018218 
2908.855 5117384 5227560 5350348 5487139 5638914 5806289 5989564 6188810 
2912.713 6403594 6632545 6872570 7118500 7362886 7596529 7809645 7993521 
2916.570 8141609 8250724 8321053 8355573 8358989 8336508 8292979 8232300 
2920.427 8157567 8071283 7975588 7872715 7764797 7654005 7542526 7432487 
2924.285 7325946 7224916 7131113 7045710 6968999 6900411 6838570 6781959 
2928.142 6729231 6680055 6635117 6595874 6564133 6541447 6528364 6524797 
2932.000 6529899 6542928 6563596 6592317 6630146 6678428 6738254 6810406 
2935.857 6895147 6992507 7102533 7225333 7361046 7509415 7669376 7838907 
2939.715 8014957 8193641 8370810 8542278 8704013 8852179 8983030 9092999 
2943.572 9178866 9238192 9269795 9274029 9252717 9208933 9146096 9067630 
2947.429 8976242 8874005 8762401 8642655 8516145 8384481 8249305 8112365 
2951.287 7975164 7838818 7704318 7572326 7443404 7317990 7196139 7077831 
2955.144 6962489 6849468 6738067 6627927 6518978 6411666 6306509 6204254 
2959.002 6105452 6010486 5919688 5833217 5751320 5674178 5601720 5533717 
2962.859 5469500 5408456 5349808 5293040 5238009 5184876 5133823 5085218 
2966.717 5039335 4996550 4957311 4922179 4891734 4866395 4846057 4830141 
2970.574 4817489 4806939 4797644 4789562 4783481 4780792 4782742 4790165 
2974.431 4802734 4819431 4838817 4859797 4882221 4906931 4935547 4969837 
2978.289 5010823 5058723 5112784 5172053 5235890 5304717 5380213 5464904 
2982.146 5561630 5672882 5800190 5944002 6103749 6278313 6466194 6665815 
2986.004 6875393 7093107 7316792 7544183 7772947 8000826 8225819 8446090 
2989.861 8659826 8865160 9060098 9242509 9410171 9561007 9693052 9804555 
2993.719 9894054 9960350 10002784 10021382 10016937 9991075 9945873 9883704 
2997.576 9806616 9716169 9613353 9498763 9372835 9236116 9089629 8934510 
3001.433 8772081 8603422 8429538 8251241 8069464 7885335 7700144 7515316 
3005.291 7332062 7151105 6972674 6796635 6622627 6450502 6280382 6112655 
3009.148 5947814 5786175 5627808 5472665 5320565 5171658 5026256 4885133 
3013.006 4748903 4618139 4492787 4372567 4257000 4145584 4038133 3934608 
3016.863 3834973 3739115 3646495 3556429 3468214 3381757 3297493 3216518 
3020.720 3140201 3069570 3005000 2946082 2891595 2840246 2790947 2743503 
3024.578 2698158 2655596 2616276 2579920 2545444 2511181 2475301 2436487 
3028.435 2394340 2349374 2302877 2256300 2210920 2167460 2126072 2086553 
3032.293 2048736 2012684 1978803 1947807 1920450 1897323 1878609 1864044 
3036.150 1852873 1844219 1836971 1830099 1822684 1814032 1803418 1790494 
3040.008 1775046 1757022 1736769 1714891 1692171 1669663 1648407 1629403 
3043.865 1613500 1601167 1592568 1587418 1584912 1583948 1583115 1581056 
3047.722 1576524 1568996 1558574 1546248 1533561 1522344 1514017 1509492 
3051.580 1508473 1510000 1512376 1513986 1513611 1510944 1506381 1501050 
3055.437 1496127 1492595 1490762 1490546 1491222 1492082 1492389 1491672 
3059.295 1489785 1486831 1483262 1479752 1477135 1476239 1477784 1481967 
3063.152 1488287 1495737 1502677 1507616 1509548 1508347 1504742 1500078 
3067.010 1495751 1492707 1490948 1489990 1489000 1487455 1485508 1484116 
3070.867 1484545 1487752 1493893 1501940 1510115 1516273 1518746 1516975 
3074.724 1511650 1504230 1496521 1489891 1484796 1480967 1477374 1473120 
3078.582 1467606 1460926 1453666 1446704 1440946 1436931 1434710 1434160 
3082.439 1434674 1435538 1435876 1434810 1431440 1425331 1416380 1405236 
3086.297 1393108 1381628 1372285 1366267 1364113 1365649 1370350 1377514 
3090.154 1386480 1396847 1408086 1419382 1429387 1436394 1438637 1434863 
3094.011 1424891 1409893 1392125 1374436 1359190 1347847 1340326 1335331 
3097.869 1330957 1325546 1318546 1310653 1303587 1299485 1299884 1305077 
3101.726 1313851 1323843 1332281 1336767 1336091 1330462 1321236 1310325 
3105.584 1299682 1290627 1283813 1279211 1276385 1274982 1274514 1274733 
3109.441 1275170 1275253 1274150 1271227 1266023 1258862 1250470 1242129 
3113.299 1234993 1229978 1227222 1226235 1226154 1226125 1225638 1224734 
3117.156 1223725 1223153 1223186 1223844 1224753 1225703 1226779 1228659 
3121.013 1232522 1239716 1251150 1266964 1286013 1306365 1325368 1340626 
3124.871 1350484 1354395 1353087 1348242 1341838 1335662 1330573 1326602 
3128.728 1322703 1317442 1309353 1297754 1282917 1266507 1250931 1238975 
3132.586 1233070 1234286 1242355 1255352 1270356 1284213 1294195 1298884 
3136.443 1298108 1292935 1284991 1275995 1267039 1258700 1250947 1243811 
3140.301 1237514 1232842 1230857 1232653 1238631 1248299 1260062 1271598 
3144.158 1280447 1284661 1283375 1276976 1266819 1254766 1242446 1230977 
3148.015 1220684 1211262 1202375 1193937 1186425 1180910 1178564 1180324 
3151.873 1186350 1195930 1207504 1219209 1229254 1236454 1240461 1241547 
3155.730 1240481 1237949 1234360 1229704 1223748 1216365 1207862 1199261 
3159.588 1192105 1188401 1189786 1197141 1210025 1226677 1244118 1258965 
3163.445 1268297 1270352 1265202 1254643 1241880 1230470 1223364 1222153 
3167.302 1226691 1235307 1245515 1254795 1261439 1264715 1264939 1263054 
3171.160 1260001 1256587 1253140 1249958 1247188 1245383 1245116 1246950 
3175.017 1251099 1257234 1264678 1272485 1279956 1286770 1293012 1298928 
3178.875 1304589 1309700 1313536 1315331 1314616 1311644 1307213 1302537 
3182.732 1298529 1295575 1293173 1290355 1286120 1280116 1272907 1266047 
3186.590 1261316 1260313 1263701 1270981 1280705 1291040 1300132 1306783 
3190.447 1310331 1310710 1308058 1302812 1295481 1286986 1278573 1271857 
3194.304 1268300 1268929 1273854 1282103 1291820 1300856 1307083 1309045 
3198.162 1306108 1298367 1286399 1271154 1253671 1235264 1217561 1202422 
3202.019 1191731 1187180 1189650 1199206 1214699 1234182 1255078 1274804 
3205.877 1291054 1302271 1307969 1308744 1306388 1303569 1303132 1307567 
3209.734 1317855 1333214 1350986 1367282 1378105 1380719 1374444 1361137 
3213.592 1344387 1328398 1316738 1311268 1311917 1317212 1325048 1333779 
3217.449 1342471 1351058 1359766 1368542 1376858 1383766 1388499 1390927 
3221.306 1391749 1392292 1393870 1397163 1401578 1405629 1407404 1405520 
3225.164 1399762 1391293 1382249 1374834 1370451 1369263 1370040 1370870 
3229.021 1369995 1366396 1360257 1352776 1345531 1340166 1337717 1338490 
3232.879 1342150 1348082 1355153 1362279 1368132 1371507 1371387 1367314 
3236.736 1359613 1349376 1338433 1328701 1321663 1317949 1317040 1317929 
3240.594 1319263 1320219 1320784 1321663 1323855 1328119 1334153 1340699 
3244.451 1345706 1347024 1343370 1334830 1322944 1310305 1299587 1292677 
3248.308 1289850 1289835 1290233 1288588 1283291 1274385 1263564 1253751 
3252.166 1248023 1248773 1256820 1271462 1290559 1311438 1331510 1348933 
3256.023 1362617 1372133 1377425 1378588 1375685 1369109 1359478 1347959 
3259.881 1336121 1325523 1317333 1311955 1308702 1306256 1302805 1296985 
3263.738 1288120 1276742 1264489 1253684 1246840 1246042 1252253 1265084 
3267.595 1282694 1302289 1320494 1334409 1342020 1342950 1338138 1329847 
3271.453 1320590 1312710 1307553 1305447 1305639 1307112 1308707 1309863 
3275.310 1310516 1310961 1311493 1312190 1312822 1312861 1311761 1309257 
3279.168 1305403 1300529 1295259 1290130 1285723 1282478 1280768 1280781 
3283.025 1282385 1285065 1287790 1289264 1288245 1284172 1277429 1269575 
3286.883 1262872 1259618 1261396 1268275 1278729 1290035 1299023 1303019 
3290.740 1300680 1292375 1279954 1266319 1254684 1247999 1248160 1255940 
3294.597 1270660 1290442 1312525 1333636 1350809 1361968 1366347 1364727 
3298.455 1358903 1351146 1343465 1336752 1330922 1325167 1318483 1310561 
3302.312 1301941 1293894 1287909 1284917 1284894 1286827 1288860 1289435 
3306.170 1287578 1283378 1277816 1272309 1268104 1265978 1266030 1268028 
3310.027 1271632 1276752 1283402 1291593 1300915 1310474 1318906 1324737 
3313.885 1326781 1324502 1318189 1308858 1297841 1286522 1276010 1267181 
3317.742 1260479 1256115 1254057 1253973 1255475 1257821 1260423 1262782 
3321.599 1264764 1266613 1268718 1271490 1275074 1279292 1283556 1287199 
3325.457 1289598 1290330 1289227 1286511 1282460 1277606 1272574 1268141 
3329.314 1265164 1264301 1265831 1269432 1274248 1279110 1282837 1285106 
3333.172 1286350 1287974 1291682 1298802 1309660 1323288 1337501 1349755 
3337.029 1357885 1360783 1358646 1352802 1344902 1336397 1327991 1319572 
3340.886 1310748 1301163 1291129 1281540 1273624 1268399 1266213 1266284 
3344.744 1267014 1266504 1263119 1256278 1246383 1235042 1224370 1216436 
3348.601 1212696 1213665 1218943 1227524 1238224 1250037 1262414 1275109 
3352.459 1288022 1300928 1313122 1323458 1330557 1333239 1330917 1324062 
3356.316 1313952 1302604 1292130 1284246 1279716 1278474 1279578 1281704 
3360.174 1283697 1284701 1284267 1282440 1279332 1275222 1270313 1265088 
3364.031 1260188 1256535 1255118 1256715 1261597 1269304 1278600 1287945 
3367.888 1295650 1300677 1302721 1302356 1300852 1299698 1300323 1303608 
3371.746 1309611 1317667 1326368 1333979 1338771 1339550 1335882 1328501 
3375.603 1318974 1309660 1302905 1300619 1303604 1311480 1322635 1334866 
3379.461 1345757 1353453 1356823 1355581 1350211 1341583 1330726 1318611 
3383.318 1306098 1293808 1282195 1271495 1261551 1251877 1241872 1230937 
3387.176 1218981 1206525 1194803 1185703 1181117 1182610 1190885 1205517 
3391.033 1225207 1247964 1271718 1294779 1316047 1334953 1351404 1365420 
3394.890 1376978 1385929 1392247 1396137 1398153 1399192 1400084 1401317 
3398.748 1402596 1402875 1400572 1394243 1383203 1368067 1350665 1333760 
3402.605 1320004 1311215 1307510 1307479 1308700 1308669 1305849 1300057 
3406.463 1292681 1285736 1281192 1280098 1282329 1286715 1291694 1296070 
3410.320 1299183 1301099 1302002 1301855 1300112 1295904 1288569 1278119 
3414.177 1265772 1253457 1243559 1237834 1236902 1240136 1245939 1252532 
3418.035 1258705 1264057 1268908 1273692 1278408 1282281 1283902 1281773 
3421.892 1275207 1264534 1251400 1238217 1227296 1220331 1217735 1218970 
3425.750 1222746 1227668 1232534 1236750 1240027 1242423 1244133 1245557 
3429.607 1247118 1249551 1253303 1258844 1266061 1274542 1283634 1292671 
3433.465 1301401 1309871 1318171 1326152 1332964 1337022 1336440 1329929 
3437.322 1317259 1299909 1280662 1263077 1250027 1243112 1242091 1245403 
3441.179 1250901 1256929 1262879 1269336 1277349 1287677 1300000 1312835 
3445.037 1323865 1330823 1332357 1328557 1320943 1312048 1304383 1300175 
3448.894 1300541 1305703 1314925 1327115 1340785 1354391 1366294 1375177 
3452.752 1380056 1380699 1377728 1372607 1367277 1363714 1363338 1366867 
3456.609 1374039 1383837 1394886 1405790 1415262 1422528 1427066 1428792 
3460.467 1427984 1425312 1421702 1418322 1416227 1416366 1419227 1424916 
3464.324 1433238 1443705 1455765 1468850 1482368 1495821 1508664 1520549 
3468.181 1531393 1541289 1550433 1559022 1567139 1574723 1581543 1587667 
3472.039 1593398 1599363 1606226 1614288 1622970 1630922 1636095 1636659 
3475.896 1631915 1622793 1611933 1603039 1599768 1604462 1617417 1636961 
3479.754 1660021 1683452 1704864 1723228 1738717 1752040 1763653 1773460 
3483.611 1781004 1785923 1788681 1790927 1794996 1803332 1817329 1836781 
3487.469 1859831 1883558 1905270 1923199 1937328 1949097 1960530 1973525 
3491.326 1989091 2007125 2026620 2046370 2065458 2083392 2100101 2115571 
3495.183 2129790 2142440 2153321 2162690 2171086 2179696 2189555 2201300 
3499.041 2214789 2229047 2242594 2254202 2263142 2269542 2274235 2278294 
3502.898 2282448 2286757 2290360 2292101 2290695 2285304 2275915 2263411 
3506.756 2249360 2235860 2225023 2218724 2218121 2223581 2234211 2248113 
3510.613 2262293 2273419 2278183 2274279 2260713 2238225 2208980 2176248 
3514.470 2143467 2113742 2089198 2070804 2058181 2050184 2044985 2040635 
3518.328 2035551 2028565 2019237 2007862 1994974 1981349 1967439 1953373 
3522.185 1938819 1923235 1906135 1887484 1867873 1848542 1830852 1816054 
3526.043 1804860 1797032 1791875 1788194 1784973 1781752 1778707 1776619 
3529.900 1776377 1778797 1783987 1791345 1799675 1807382 1812875 1814828 
3533.758 1812398 1805335 1793981 1778987 1761478 1742924 1724971 1709444 
3537.615 1698098 1692226 1692350 1698081 1708024 1720070 1731740 1741040 
3541.472 1746487 1747746 1745111 1739377 1731077 1720412 1706931 1690230 
3545.330 1670319 1648055 1625610 1605798 1591588 1585058 1586723 1595504 
3549.187 1608993 1624245 1638778 1651057 1660474 1667075 1670847 1671621 
3553.045 1668778 1661887 1651175 1638044 1624696 1613858 1607636 1606866 
3556.902 1610871 1617818 1625685 1633220 1640294 1648025 1657713 1669969 
3560.760 1683946 1697223 1706568 1709150 1703713 1691315 1674905 1658505 
3564.617 1645813 1638981 1638140 1641753 1647122 1651836 1654066 1653155 
3568.474 1649446 1643742 1637032 1630177 1624013 1619307 1616597 1616324 
3572.332 1618157 1621294 1624276 1625656 1624463 1620757 1615602 1610804 
3576.189 1608159 1608544 1611599 1615697 1618334 1617186 1610742 1598893 
3580.047 1582727 1564390 1546086 1529732 1516503 1506772 1500155 1496113 
3583.904 1493833 1492715 1492256 1492229 1492633 1493722 1495662 1498551 
3587.761 1502089 1505424 1507199 1505889 1500111 1489372 1474127 1456057 
3591.619 1437504 1421087 1408690 1401323 1398652 1399212 1400938 1402027 
3595.476 1401133 1397979 1393190 1387930 1383366 1380136 1378023 1375935 
3599.334 1372341 1365703 1355225 1341159 1325057 1309290 1296420 1288577 
3603.191 1286752 1290728 1299040 1309691 1320635 1330377 1338170 1343989 
3607.049 1348460 1352438 1356923 1362785 1370650 1380823 1392965 1406065 
3610.906 1418506 1428439 1434366 1435910 1434024 1431195 1430311 1433921 
3614.763 1443093 1456729 1471771 1484316 1490792 1489503 1481147 1468820 
3618.621 1456866 1449630 1449883 1458369 1473819 1493271 1513228 1530502 
3622.478 1542692 1548595 1548098 1542423 1533885 1525467 1520503 1521773 
3626.336 1530807 1547416 1569457 1593801 1617002 1636543 1651462 1662425 
3630.193 1670923 1678330 1685241 1691241 1695383 1697104 1696940 1696739 
3634.051 1698997 1705966 1718501 1735631 1754619 1772091 1785122 1792257 
3637.908 1793677 1790733 1785325 1778903 1772224 1765714 1759751 1755434 
3641.765 1754373 1758583 1769397 1787051 1810254 1836766 1863789 1889211 
3645.623 1911795 1931587 1949186 1965469 1981074 1996145 2010450 2023658 
3649.480 2035536 2045776 2053985 2059734 2062372 2061651 2057853 2052081 
3653.338 2045988 2041206 2038814 2038789 2040149 2041461 2041387 2039460 
3657.195 2036378 2033357 2031673 2031941 2033793 2036124 2037620 2037508 
3661.052 2036007 2033941 2032328 2031920 2032581 2033610 2033853 2032522 
3664.910 2029125 2023562 2015525 2004374 1989051 1968731 1943574 1915302 
3668.767 1887396 1863990 1848563 1842496 1844079 1848861 1850963 1845039 
3672.625 1828184 1800594 1765482 1727748 1692387 1663299 1642194 1628936 
3676.482 1621927 1619013 1617945 1616570 1613014 1605716 1593551 1576485 
3680.340 1555709 1533576 1513041 1496763 1486159 1480960 1479491 1479168 
3684.197 1477784 1474047 1467820 1459940 1451357 1442426 1432951 1422192 
3688.054 1409730 1396057 1382641 1371812 1365875 1366362 1373299 1385358 
3691.912 1400173 1415067 1427879 1437288 1442996 1445321 1444830 1442214 
3695.769 1437707 1431371 1423118 1412972 1401106 1388114 1374909 1362814 
3699.627 1353103 1346788 1344343 1345322 1348564 1352216 1354433 1353854 
3703.484 1349836 1342463 1332477 1320781 1308068 1295168 1282945 1272689 
3707.342 1266219 1265380 1271464 1284387 1301972 1320518 1335550 1343224 
3711.199 1341786 1332326 1318325 1304868 1296555 1296177 1303838 1317432 
3715.056 1333277 1347898 1359024 1366266 1370629 1374123 1378550 1385053 
3718.914 1393584 1403237 1412370 1419380 1422847 1421974 1416710 1407861 
3722.771 1397020 1386426 1378393 1374888 1376809 1383671 1393587 1403579 
3726.629 1410474 1411591 1405432 1392109 1373077 1350828 1328389 1308838 
3730.486 1294779 1288255 1289979 1299967 1316491 1337023 1357987 1375903 
3734.344 1387598 1391172 1386247 1374130 1357642 1340514 1326630 1319448 
3738.201 1321091 1332014 1350723 1374162 1398172 1418604 1432254 1438016 
3742.058 1436713 1431106 1424635 1420264 1419321 1421243 1423842 1424651 
3745.916 1421930 1415752 1407570 1399974 1394982 1393358 1394038 1394743 
3749.773 1392880 1386856 1376833 1364865 1353923 1347002 1345683 1350006 
3753.631 1358356 1368389 1377735 1384725 1388479 1388933 1386199 1380816 
3757.488 1373335 1364898 1357062 1352000 1351909 1358275 1371390 1389723 
3761.345 1410326 1429366 1442929 1448384 1444645 1432677 1415173 1395954 
3765.203 1378998 1367738 1364050 1368403 1379440 1394761 1411510 1427245 
3769.060 1440390 1450478 1457847 1463113 1466401 1467294 1464544 1457114 
3772.918 1444563 1427621 1408456 1389869 1374496 1363988 1358359 1356313 
3776.775 1355893 1355473 1354498 1353762 1354805 1359498 1368839 1382716 
3780.633 1399871 1418522 1436599 1452407 1464591 1471923 1473173 1467226 
3784.490 1453535 1432809 1407070 1379900 1355446 1337555 1328402 1328154 
3788.347 1334928 1345627 1357140 1367353 1375479 1381796 1386963 1391345 
3792.205 1394247 1394411 1390495 1382078 1369780 1355833 1343100 1334624 
3796.062 1332385 1337271 1348564 1364744 1383633 1403075 1420924 1435465 
3799.920 1445198 1449116 1446924 1439129 1427101 1412860 1398426 1385515 
3803.777 1375028 1367170 1361560 1357792 1355447 1354487 1354773 1356039 
3807.635 1357495 1358061 1356579 1352743 1347099 1341390 1338009 1339324 
3811.492 1346533 1359412 1376013 1393346 1408214 1418243 1422450 1421355 
3815.349 1416690 1410621 1405099 1401375 1399970 1400835 1403577 1408003 
3819.207 1413898 1421122 1429229 1437594 1445080 1450627 1453224 1452411 
3823.064 1448186 1441149 1432295 1422699 1413624 1406044 1400724 1398203 
3826.922 1398482 1401279 1405702 1410535 1414385 1415996 1414331 1409006 
3830.779 1400147 1388496 1375178 1361628 1349484 1340384 1335597 1336086 
3834.636 1341953 1352446 1365761 1379478 1390854 1397566 1398293 1392994 
3838.494 1382922 1370297 1357465 1346605 1338963 1334923 1334000 1335386 
3842.351 1337928 1340560 1342269 1342502 1340924 1337766 1333555 1329317 
3846.209 1326105 1324653 1324960 1326103 1326397 1323890 1316961 1305081 
3850.066 1288970 1270529 1252318 1236855 1225940 1220616 1221077 1227146 
3853.924 1238452 1254638 1275204 1299100 1324614 1349366 1370739 1386617 
3857.781 1395954 1399016 1397257 1392945 1388026 1383944 1380879 1378446 
3861.638 1375897 1372508 1368189 1363185 1358000 1353059 1348491 1344322 
3865.496 1340655 1337943 1336883 1338432 1343339 1351800 1363248 1376535 
3869.353 1390214 1402928 1413822 1422793 1430097 1436240 1441607 1446459 
3873.211 1450599 1453693 1455156 1454508 1451257 1445169 1436166 1424868 
3877.068 1412233 1399649 1388591 1380251 1375162 1373104 1373301 1374871 
3880.926 1377363 1381008 1386587 1395073 1406817 1421276 1436571 1450352 
3884.783 1460191 1464554 1463424 1458099 1450733 1443483 1437699 1433785 
3888.640 1431091 1428553 1425039 1420290 1414434 1408305 1402811 1398759 
3892.498 1396579 1396348 1397744 1400207 1402826 1404366 1403473 1398792 
3896.355 1389567 1375942 1359190 1341641 1326108 1315375 1311307 1314594 
3900.213 1324354 1338781 1355206 1371115 1384305 1393393 1397985 1398693 
3904.070 1396883 1394408 1393236 1394726 1399322 1406124 1413176 1418037 
3907.927 1418460 1413464 1403374 1390123 1376516 1365414 1358752 1357234 
3911.785 1360236 1366506 1374646 1383978 1394489 1406521 1420282 1435278 
3915.642 1449808 1461319 1466996 1464598 1453218 1433851 1408944 1382255 
3919.500 1357565 1338017 1325300 1319559 1319407 1322764 1327354 1331433 
3923.357 1334086 1335272 1335515 1335391 1335306 1335299 1335332 1335496 
3927.215 1336355 1338959 1344462 1353811 1366876 1382583 1398755 1413081 
3931.072 1423643 1429676 1431808 1431537 1430596 1430075 1429830 1428717 
3934.929 1425118 1417668 1406021 1391072 1374779 1359392 1346881 1338524 
3938.787 1334716 1335432 1340332 1349206 1361834 1377690 1395909 1415016 
3942.644 1433379 1449443 1462244 1471596 1477971 1482173 1484846 1486360 
3946.502 1486621 1485496 1483013 1479368 1475155 1470809 1466488 1462126 
3950.359 1457368 1452213 1447069 1442876 1440688 1441167 1444011 1447833 
3954.217 1450520 1450076 1445284 1436473 1425441 1414855 1407308 1404386 
3958.074 1406249 1411710 1418640 1425043 1429608 1432005 1432775 1432976 
3961.931 1433627 1435483 1438875 1443645 1449435 1455453 1460691 1464168 
3965.789 1464836 1462098 1455901 1447025 1436847 1427039 1418900 1413265 
3969.646 1410175 1409113 1409443 1410729 1412797 1415702 1419257 1422841 
3973.504 1425429 1425974 1423863 1419561 1414567 1411087 1411085 1415733 
3977.361 1424448 1435198 1445128 1451551 1452950 1449602 1443196 1436362 
3981.219 1431415 1429713 1431283 1435115 1439734 1444087 1447709 1451053 
3985.076 1454929 1459953 1466203 1473067 1479507 1484389 1486981 1487267 
3988.933 1485807 1483667 1481927 1481626 1483432 1487799 1494849 1504716 
3992.791 1517068 1531385 1546522 1560956 1573030 1581008 1583790 1581015 
3996.648 1573256 1561726 1547962 1533515 1519694 1507367 1497150 1489684 
4000.506 1485639 
##END=
