##TITLE=Tecor_PLA-Bicolour_White_Filament_r6_ATR-Corrected
##JCAMP-DX=5.01  $$ Nicolet v. 1
##DATATYPE=INFRARED SPECTRUM
##ORIGIN=Curtin University
##OWNER=Nicolet
##LONGDATE=2024/07/19
##TIME=11:41:46
##SPECTROMETER/DATA SYSTEM=Nicolet iS50
##DATA PROCESSING=
Ratio against background
%Transmittance->Absorbance
ATR Correction
Truncated
ElementMultiply or ElementDivide
##COMMENTS=
Number of sample scans: 32
Collection length: 47.28 sec
Sample gain: 1.0
Background collected on: Fri Jul 19 11:40:26 2024 (GMT+08:00);
Number of background scans: 32
Background gain: 1.0
Sample spacing:  1.000
Number of scan points: 16672
Resolution points: 8192
Number of FFT points: 65536
Apodization: N-B strong;
Phase correction: Mertz;
Laser frequency: 15798.3 cm-1
Number of rejected sample scans: 0
Number of rejected background scans: 0
Bench serial number: AUP1200105;
##RESOLUTION=4.000
##XUNITS=1/CM
##YUNITS=ABSORBANCE
##FIRSTX=400.163452
##LASTX=4000.187744
##FIRSTY=0.064192
##MAXX=4000.187744
##MINX=400.163452
##MAXY=1.170444
##MINY=-0.027901
##XFACTOR=1.000000
##YFACTOR=1.000000E-008
##NPOINTS=7468
##DELTAX=0.482125
##ZPD=8192
##XYDATA=(X++(Y..Y))
400.163 6419182 6359467 6277412 6173303 6048298 5907581 5759310 5613700 
404.020 5480447 5366101 5272234 5195424 5128862 5065218 4999512 4930898 
407.877 4862372 4798988 4744880 4701306 4665606 4632381 4595478 4550305 
411.734 4495260 4431772 4363094 4292669 4222751 4154285 4087291 4021932 
415.591 3958907 3899314 3843791 3791631 3740650 3688100 3632274 3574273 
419.448 3518523 3471729 3440389 3427861 3432300 3446514 3459967 3462168 
423.305 3446387 3411896 3363913 3311399 3263396 3225683 3199028 3179773 
427.162 3162052 3140929 3114650 3085520 3058730 3040320 3034730 3043521 
431.019 3065055 3095531 3130241 3164628 3195407 3220088 3236952 3245075 
434.876 3244384 3236092 3222665 3207580 3194296 3185310 3181132 3180126 
438.733 3179073 3174338 3163103 3144259 3118451 3087644 3054181 3020121 
442.590 2986888 2955480 2926794 2901999 2882323 2868825 2861699 2860014 
446.447 2861699 2864147 2864831 2862198 2855860 2846650 2836069 2825764 
450.304 2817039 2810694 2807030 2806086 2807729 2811732 2817684 2824963 
454.161 2832649 2839623 2844637 2846455 2843935 2836129 2822394 2802621 
458.017 2777296 2747632 2715390 2682585 2651041 2622105 2596549 2574811 
461.874 2557346 2544947 2538699 2539161 2546699 2559832 2575264 2588511 
465.731 2594946 2591197 2576171 2551450 2520659 2488328 2458524 2433935 
469.588 2415503 2402845 2394828 2390256 2388053 2387246 2386679 2385006 
473.445 2380873 2373440 2362779 2349988 2336765 2324707 2314541 2305837 
477.302 2297276 2287386 2275357 2261443 2246725 2232279 2218284 2203606 
481.159 2186161 2164038 2136857 2106647 2077661 2055148 2043441 2044224 
485.016 2055778 2073606 2092049 2106362 2114223 2116045 2114056 2110696 
488.873 2107078 2102389 2094304 2080432 2059707 2033406 2004985 1979100 
492.730 1960041 1950421 1950524 1958331 1970997 1985213 1998213 2008086 
496.587 2013753 2014800 2011351 2004154 1994596 1984662 1976572 1972220 
500.444 1972648 1977751 1986395 1997034 2008282 2019470 2030665 2042392 
504.301 2054971 2068152 2080903 2091782 2099469 2103356 2103786 2102004 
508.158 2099609 2098110 2098363 2100523 2104096 2108292 2112312 2115546 
512.015 2117664 2118564 2118319 2117154 2115358 2113157 2110538 2107090 
515.871 2101926 2093937 2082141 2066254 2047022 2026309 2006661 1990636 
519.728 1979985 1975124 1974959 1977333 1979618 1979484 1975375 1966691 
523.585 1953679 1937221 1918627 1899404 1881635 1867415 1858604 1856423 
527.442 1860966 1870996 1884115 1897334 1907819 1913629 1914042 1909538 
531.299 1901303 1890723 1878921 1866663 1854427 1842681 1831972 1822863 
535.156 1815605 1809945 1805079 1799923 1793667 1786309 1778892 1773288 
539.013 1771573 1775183 1784245 1797356 1811952 1825061 1834219 1838139 
542.870 1836973 1832068 1825369 1818866 1814054 1811731 1812049 1814625 
546.727 1818758 1823618 1828301 1832066 1834447 1835427 1835454 1835374 
550.584 1836090 1838236 1841901 1846567 1851285 1855104 1857427 1858268 
554.441 1858141 1857787 1857723 1857846 1857667 1856391 1853425 1848893 
558.298 1843860 1840097 1839596 1843906 1853564 1867890 1885127 1902966 
562.155 1919160 1932043 1940818 1945526 1946796 1945558 1942751 1939255 
566.012 1935875 1933414 1932666 1934342 1938883 1946313 1956181 1967624 
569.869 1979542 1990865 2000718 2008542 2014027 2017117 2017913 2016765 
573.725 2014380 2011936 2011080 2013677 2021350 2034944 2054112 2077193 
577.582 2101543 2124200 2142756 2156057 2164529 2169993 2175034 2182114 
581.439 2192867 2207618 2225449 2244643 2263284 2279837 2293467 2304143 
585.296 2312380 2319026 2324952 2330858 2337224 2344243 2351797 2359517 
589.153 2366785 2372931 2377394 2380000 2381054 2381414 2382288 2385012 
593.010 2390760 2400371 2414222 2432274 2454022 2478522 2504298 2529409 
596.867 2551580 2568636 2579110 2582852 2581312 2577461 2575051 2577584 
600.724 2587183 2603953 2625858 2649532 2671381 2688842 2701183 2709636 
604.581 2716748 2725323 2737355 2753353 2772308 2792272 2811159 2827584 
608.438 2841282 2853090 2864476 2876987 2891744 2909182 2929077 2950861 
612.295 2973866 2997612 3021821 3046445 3071511 3097028 3122961 3149217 
616.152 3175709 3202388 3229211 3256180 3283241 3310328 3337302 3363987 
620.009 3390166 3415622 3440153 3463614 3485928 3507125 3527276 3546476 
623.866 3564766 3582093 3598368 3613525 3627670 3641226 3654961 3669907 
627.723 3687151 3707556 3731472 3758599 3787998 3818320 3848109 3876168 
631.579 3901781 3924865 3945820 3965434 3984482 4003609 4023119 4042932 
635.436 4062666 4081744 4099541 4115539 4129455 4141317 4151485 4160649 
639.293 4169726 4179729 4191550 4205763 4222382 4240850 4260020 4278443 
643.150 4294689 4307770 4317501 4324592 4330582 4337403 4346903 4360341 
647.007 4378080 4399514 4423412 4448274 4472855 4496457 4518941 4540582 
650.864 4561784 4582743 4603361 4623278 4642131 4659778 4676462 4692767 
654.721 4709411 4726996 4745745 4765438 4785507 4805301 4824365 4842640 
658.578 4860469 4878424 4897056 4916553 4936551 4956107 4973896 4988552 
662.435 4999066 5005130 5007373 5007244 5006757 5008067 5012921 5022416 
666.292 5036797 5055619 5078074 5103304 5130657 5159674 5189960 5220756 
670.149 5250857 5278562 5301999 5319686 5331056 5336831 5338930 5340028 
674.006 5342850 5349415 5360542 5375777 5393685 5412392 5430161 5445824 
677.863 5458894 5469471 5478020 5485209 5491704 5498266 5505736 5515007 
681.720 5526845 5541667 5559351 5579122 5599719 5619648 5637674 5653155 
685.577 5666272 5677940 5689592 5702683 5718301 5736762 5757545 5779364 
689.433 5800517 5819314 5834545 5845801 5853552 5859050 5863943 5869870 
693.290 5877999 5888822 5902109 5917160 5933060 5949009 5964506 5979284 
697.147 5993281 6006391 6018445 6029222 6038604 6046685 6053829 6060530 
701.004 6067225 6073993 6080432 6085731 6088879 6088993 6085606 6078778 
704.861 6068997 6056975 6043346 6028520 6012621 5995635 5977488 5958192 
708.718 5937747 5915989 5892443 5866238 5836187 5801029 5759792 5712064 
712.575 5658081 5598699 5535059 5468286 5399165 5327993 5254568 5178398 
716.432 5098907 5015759 4928974 4839029 4746790 4653300 4559615 4466532 
720.289 4374491 4283563 4193541 4104195 4015508 3927926 3842415 3760429 
724.146 3683699 3613990 3552766 3501060 3459364 3427754 3406003 3393881 
728.003 3391295 3398494 3416063 3444898 3486052 3540471 3608767 3690958 
731.860 3786388 3893685 4010951 4136055 4266977 4402065 4540206 4680776 
735.717 4823472 4968038 5114022 5260646 5406760 5550956 5691739 5827692 
739.574 5957642 6080761 6196635 6305255 6407064 6502846 6593577 6680248 
743.431 6763731 6844653 6923395 7000224 7075426 7149435 7222932 7296671 
747.287 7371430 7447820 7526210 7606767 7689516 7774330 7860934 7948701 
751.144 8036479 8122574 8204836 8281041 8349253 8408235 8457393 8496568 
755.001 8525440 8543035 8547401 8535820 8505450 8454160 8381319 8288208 
758.858 8177817 8054263 7921887 7784522 7644999 7505100 7365733 7227252 
762.715 7089665 6952765 6816143 6679202 6541369 6402262 6262050 6121390 
766.572 5981486 5843697 5709213 5578801 5452804 5331287 5214348 5102346 
770.429 4995851 4895474 4801426 4713232 4629716 4549197 4469909 4390511 
774.286 4310392 4229653 4148878 4068669 3989349 3910781 3832506 3754021 
778.143 3675044 3595682 3516420 3437903 3360711 3285204 3211438 3139258 
782.000 3068333 2998271 2928631 2858929 2788689 2717538 2645439 2572782 
785.857 2500454 2429694 2361839 2297907 2238361 2182985 2131027 2081504 
789.714 2033560 1986745 1941072 1896946 1854883 1815269 1778178 1743311 
793.571 1710112 1677938 1646246 1614715 1583377 1552598 1523024 1495444 
797.428 1470664 1449299 1431655 1417703 1407111 1399397 1394087 1390872 
801.285 1389540 1389881 1391456 1393413 1394641 1393823 1389931 1382609 
805.141 1372484 1361107 1350616 1343080 1339901 1341310 1346295 1352892 
808.998 1358811 1362086 1361644 1357576 1350975 1343605 1337331 1333649 
812.855 1333308 1336237 1341602 1348022 1353945 1357909 1358923 1356638 
816.712 1351482 1344660 1337947 1333337 1332664 1337112 1346909 1361193 
820.569 1378122 1395291 1410227 1420985 1426577 1427084 1423592 1417773 
824.426 1411422 1406035 1402571 1401458 1402808 1406690 1413309 1422974 
828.283 1435940 1452101 1470766 1490677 1510253 1528062 1543300 1556101 
832.140 1567486 1578998 1592173 1607947 1626459 1647037 1668613 1690312 
835.997 1711886 1733981 1758006 1785769 1819055 1859221 1907033 1962694 
839.854 2025975 2096386 2173244 2255673 2342528 2432479 2524081 2615910 
843.711 2706839 2795969 2882606 2966005 3045112 3118497 3184447 3241367 
847.568 3288297 3325420 3354301 3377809 3399778 3424438 3455839 3497477 
851.425 3552200 3622241 3709449 3815421 3941559 4088907 4257971 4448496 
855.282 4659429 4888962 5134758 5394197 5664564 5943045 6226676 6512142 
859.139 6795645 7072950 7339658 7591621 7825508 8039151 8231685 8403338 
862.995 8554931 8687359 8801215 8896656 8973607 9032208 9073061 9097410 
866.852 9106911 9103208 9087445 9059967 9020308 8967557 8900825 8819696 
870.709 8724518 8616244 8496153 8365441 8224895 8074881 7915450 7746723 
874.566 7569107 7383473 7191062 6993260 6791381 6586478 6379348 6170722 
878.423 5961469 5752806 5546355 5344071 5148012 4960105 4781946 4614721 
882.280 4459328 4316452 4186756 4070979 3969893 3884168 3814220 3760016 
886.137 3720969 3695970 3683432 3681529 3688310 3701916 3720646 3742955 
889.994 3767481 3792930 3818108 3841876 3863276 3881562 3896248 3907124 
893.851 3914186 3917585 3917487 3914125 3907789 3898916 3888072 3875934 
897.708 3863169 3850252 3837328 3824204 3810477 3795822 3780198 3764102 
901.565 3748505 3734685 3723820 3716644 3713179 3712757 3714177 3716111 
905.422 3717471 3717665 3716673 3714965 3713233 3712175 3712284 3713723 
909.279 3716348 3719746 3723368 3726600 3728915 3729954 3729592 3727918 
913.136 3725165 3721599 3717373 3712435 3706573 3699515 3691112 3681454 
916.993 3670968 3660276 3650008 3640560 3632002 3624012 3616128 3607929 
920.849 3599305 3590502 3581978 3574197 3567338 3561131 3554843 3547534 
924.706 3538354 3526833 3513080 3497736 3481810 3466388 3452309 3440021 
928.563 3429518 3420358 3411896 3403483 3394677 3385439 3376233 3368013 
932.420 3362101 3359819 3362210 3369676 3381832 3397477 3414935 3432445 
936.277 3448587 3462693 3474853 3485839 3496777 3508765 3522651 3538887 
940.134 3557567 3578587 3601792 3627073 3654323 3683497 3714452 3747064 
943.991 3781191 3816826 3854068 3893125 3934303 3977842 4023876 4072469 
947.848 4123596 4177305 4233761 4293217 4355983 4422246 4491936 4564576 
951.705 4639270 4714596 4788834 4859910 4925593 4983581 5031585 5067415 
955.562 5089110 5094955 5083598 5054066 5005843 4938925 4853897 4752029 
959.419 4635288 4506324 4368417 4225277 4080872 3939183 3803950 3678450 
963.276 3565281 3466205 3382053 3312683 3257115 3213753 3180680 3156037 
967.133 3138256 3126221 3119182 3116664 3118202 3123233 3131087 3141123 
970.990 3152959 3166581 3182429 3201228 3223757 3250583 3281862 3317316 
974.847 3356375 3398326 3442506 3488354 3535372 3583086 3630986 3678562 
978.703 3725435 3771550 3817162 3862809 3909081 3956357 4004584 4053276 
982.560 4101709 4149226 4195592 4241165 4286898 4334038 4383804 4436996 
986.417 4493833 4553962 4616670 4681118 4746502 4812244 4877895 4943182 
990.274 5007897 5072002 5135693 5199479 5264191 5330867 5400469 5473622 
994.131 5550479 5630624 5713292 5797627 5882978 5969166 6056523 6145884 
997.988 6238337 6335039 6436976 6544829 6658899 6779078 6904863 7035456 
1001.845 7169910 7307345 7447167 7589322 7734451 7883854 8039355 8202966 
1005.702 8376568 8561640 8759074 8969299 9192412 9428489 9677781 9940773 
1009.559 10218153 10510617 10818622 11142226 11481060 11834392 12201457 
1012.934 12581572 12974524 13380571 13800448 14235176 14685820 15153135 
1016.309 15637334 16137840 16653241 17181248 17718910 18262934 18809902 
1019.683 19356752 19901040 20441108 20975972 21505214 22028662 22546174 
1023.058 23057528 23562578 24061394 24554726 25044134 25532142 26022146 
1026.433 26518058 27024004 27544010 28081744 28640560 29223374 29832720 
1029.809 30470634 31138400 31836250 32563182 33316812 34093556 34889000 
1033.184 35698260 36516424 37338724 38160504 38976912 39782672 40571784 
1036.559 41337584 42072988 42770832 43424348 44027340 44574376 45060508 
1039.934 45481428 45833384 46113720 46321256 46456844 46523492 46526040 
1043.310 46470408 46362616 46208020 46010928 45774884 45503296 45200120 
1046.685 44870324 44519900 44155248 43782512 43406972 43032764 42663044 
1050.060 42300400 41947240 41605976 41278832 40967380 40672196 40392624 
1053.435 40127032 39873368 39629892 39395828 39171784 38959896 38763688 
1056.811 38587796 38437708 38319456 38239484 38204272 38220248 38293444 
1060.186 38429416 38633224 38909464 39262284 39695208 40210856 40810500 
1063.561 41493556 42257488 43097840 44009008 44984892 46019740 47108504 
1066.936 48246856 49430572 50654972 51914464 53202616 54512708 55838680 
1070.312 57175832 58521300 59873600 61232056 62595876 63963644 65333140 
1073.687 66701584 68065872 69422480 70766952 72093264 73393336 74657128 
1077.062 75873544 77031704 78122160 79137608 80072320 80921480 81679944 
1080.437 82341960 82901168 83351624 83688208 83907032 84004656 83977568 
1083.813 83821864 83534024 83113048 82562512 81892040 81117216 80257632 
1087.188 79333768 78363792 77361432 76335424 75290416 74228736 73152296 
1090.563 72063752 70967040 69866952 68768720 67677136 66596164 65528512 
1093.938 64475536 63437004 62411260 61395560 60386680 59381824 58379348 
1097.313 57379228 56383152 55393924 54414820 53448664 52497500 51562400 
1100.689 50643676 49741332 48855276 47985648 47132912 46297780 45481504 
1104.064 44685804 43912980 43165852 42447352 41760152 41106140 40486220 
1107.439 39900500 39348636 38830560 38347020 37899892 37491872 37125932 
1110.814 36804508 36528672 36297792 36109428 35959536 35843220 35755280 
1114.190 35690876 35645944 35617516 35603832 35604436 35619888 35651620 
1117.565 35701492 35771428 35862960 35977196 36114628 36275300 36458908 
1120.940 36664848 36891956 37138324 37400864 37675092 37955116 38233808 
1124.315 38503252 38755300 38981964 39175856 39330360 39439924 39500212 
1127.691 39508392 39463184 39364784 39214636 39014752 38767056 38472732 
1131.066 38131976 37743984 37307404 36821008 36284252 35697724 35063104 
1134.441 34382944 33660180 32897598 32097730 31262776 30395066 29497576 
1137.816 28574390 27630954 26673918 25710634 24748478 23794228 22853570 
1141.192 21931022 21030190 20154058 19305618 18487898 17703966 16956820 
1144.567 16249010 15582462 14958414 14377461 13839805 13345380 12893848 
1147.942 12484619 12116621 11788223 11497183 11240797 11016176 10820530 
1151.317 10651494 10507189 10386179 10287328 10209618 10151999 10113379 
1154.693 10092805 10089558 10103396 10134532 10183629 10251636 10339618 
1158.068 10448594 10579544 10733345 10910969 11113507 11342347 11599229 
1161.443 11886280 12206100 12561664 12956375 13393997 13878632 14414668 
1164.818 15006866 15660340 16380720 17174118 18047200 19007004 20060604 
1168.194 21214790 22475618 23848060 25335854 26941330 28665534 30508140 
1171.569 32467392 34539728 36719232 38996916 41360216 43792236 46271516 
1174.944 48771892 51262760 53709436 56074076 58317000 60398280 62280040 
1178.319 63928508 65316272 66423648 67239696 67762512 67998840 67963168 
1181.695 67676576 67165056 66457660 65584524 64575480 63458832 62260980 
1185.070 61006140 59716380 58411308 57107800 55819560 54556860 53326732 
1188.445 52133692 50980556 49869540 48802884 47783048 46812528 45893232 
1191.820 45026096 44210760 43445820 42729132 42058500 41431972 40847920 
1195.196 40304924 39801484 39335656 38905056 38507040 38138972 37798552 
1198.571 37484004 37194104 36927988 36684792 36463540 36262888 36081044 
1201.946 35915840 35764684 35624660 35492568 35365120 35239180 35111996 
1205.321 34981376 34845720 34703872 34554876 34397680 34230820 34052472 
1208.697 33860432 33652520 33426716 33181396 32915462 32628286 32319778 
1212.072 31990346 31640962 31273130 30888858 30490446 30080170 29660120 
1215.447 29231942 28796818 28355610 27909052 27457958 27003438 26546832 
1218.822 26089642 25633394 25179478 24729050 24283048 23842218 23407272 
1222.198 22978934 22557978 22145246 21741528 21347436 20963342 20589290 
1225.573 20225066 19870236 19524406 19187288 18858864 18539344 18229134 
1228.948 17928722 17638496 17358712 17089520 16830922 16582893 16345383 
1232.323 16118290 15901443 15694435 15496728 15307610 15126355 14952418 
1235.698 14785457 14625311 14472038 14325660 14186135 14053203 13926497 
1239.074 13805503 13689762 13578865 13472518 13370553 13272879 13179524 
1242.449 13090576 13006371 12927349 12854008 12786794 12725879 12671074 
1245.824 12621750 12576988 12535770 12497304 12461162 12427487 12396936 
1249.199 12370554 12349568 12335151 12328295 12329572 12339169 12356842 
1252.575 12381919 12413479 12450474 12491918 12537089 12585627 12637530 
1255.950 12693051 12752421 12815739 12882805 12953012 13025615 13099742 
1259.325 13174611 13249588 13324204 13398071 13470815 13541958 13611035 
1262.700 13677429 13740458 13799396 13853331 13901244 13941994 13974462 
1266.076 13997781 14011362 14014886 14008296 13991559 13964461 13926624 
1269.451 13877511 13816659 13743876 13659357 13563578 13457079 13340165 
1272.826 13212714 13074169 12923744 12760839 12585260 12397486 12198529 
1276.201 11989716 11772322 11547347 11315484 11077227 10833173 10584179 
1279.577 10331571 10077006 9822388 9569553 9320208 9075795 8837560 8606567 
1283.434 8383777 8170103 7966424 7773629 7592686 7424709 7270978 7132838 
1287.292 7011646 6908480 6823983 6758237 6710811 6680905 6667578 6669933 
1291.149 6687134 6718404 6762793 6819039 6885361 6959598 7039313 7122009 
1295.006 7205406 7287601 7367090 7442815 7514146 7580765 7642689 7700148 
1298.864 7753493 7803103 7849244 7891891 7930857 7965833 7996557 8022987 
1302.721 8045421 8064414 8080718 8095087 8108069 8119958 8130766 8140266 
1306.579 8148125 8153946 8157429 8158361 8156764 8152844 8147099 8140172 
1310.436 8132764 8125474 8118687 8112430 8106573 8100834 8095103 8089541 
1314.293 8084602 8080933 8079073 8079266 8081237 8084323 8087630 8090338 
1318.151 8092008 8092722 8093044 8093760 8095599 8098979 8103943 8110116 
1322.008 8117031 8124307 8131864 8139986 8149265 8160422 8174141 8190912 
1325.866 8211042 8234736 8262216 8293874 8330320 8372343 8420639 8475714 
1329.723 8537599 8605789 8679293 8756823 8837131 8919250 9002747 9087809 
1333.581 9175106 9265599 9360273 9459946 9565058 9675688 9791559 9912030 
1337.438 10036252 10163266 10292136 10422211 10553318 10685891 10821019 
1340.813 10960257 11105206 11257187 11416835 11583941 11757622 11936636 
1344.188 12119755 12306275 12496063 12689483 12887220 13089809 13297512 
1347.564 13510016 13726567 13946082 14167213 14388439 14608189 14824800 
1350.939 15036659 15242285 15440418 15630089 15810537 15981002 16140662 
1354.314 16288571 16423613 16544890 16651903 16744697 16823882 16890390 
1357.689 16945240 16989196 17022814 17046452 17060568 17065968 17063852 
1361.065 17055730 17043192 17027544 17009658 16989816 16967786 16942844 
1364.440 16913832 16879060 16836200 16782272 16713756 16627042 16518812 
1367.815 16386704 16229726 16048536 15845659 15625474 15394120 15159598 
1371.190 14931540 14720963 14539722 14399770 14312130 14285967 14327687 
1374.566 14440297 14623140 14871936 15179025 15533777 15923011 16331695 
1377.941 16743669 17142586 17513032 17841554 18117432 18333050 18483588 
1381.316 18566726 18581978 18530212 18413260 18233806 17995318 17701948 
1384.691 17358424 16970006 16542377 16081560 15593736 15085050 14561196 
1388.067 14027174 13486902 12943240 12398134 11853012 11309244 10768508 
1391.442 10233041 9705635 9189493 8688059 8204851 7743199 7306126 6896207 
1395.299 6515333 6164514 5843834 5552382 5288516 5050081 4834727 4640299 
1399.157 4464923 4307112 4165582 4039146 3926541 3826362 3737109 3657304 
1403.014 3585646 3521085 3462762 3410023 3362197 3318592 3278473 3241086 
1406.872 3205883 3172591 3141250 3112206 3085936 3062903 3043359 3027205 
1410.729 3014058 3003164 2993625 2984502 2975031 2964743 2953575 2941831 
1414.586 2930124 2919209 2909783 2902377 2897250 2894471 2894004 2895889 
1418.444 2900214 2907202 2916986 2929495 2944359 2960941 2978509 2996464 
1422.301 3014599 3033121 3052696 3074153 3098289 3125588 3156226 3190110 
1426.159 3227050 3267055 3310397 3357642 3409517 3466792 3530106 3599922 
1430.016 3676597 3760434 3851846 3951440 4060094 4178938 4309464 4453445 
1433.874 4612944 4790273 4987836 5208190 5453887 5727580 6032097 6370618 
1437.731 6746553 7163361 7624085 8130811 8684045 9282488 9922969 10600854 
1441.588 11310431 12045355 12798779 13563231 14330450 15091357 15836442 
1444.964 16556324 17242656 17888600 18489138 19040790 19541310 19989356 
1448.339 20384330 20726416 21016672 21256856 21449074 21595216 21696558 
1451.714 21753534 21765898 21733094 21654608 21530154 21359574 21142732 
1455.089 20879452 20569696 20214028 19813958 19372268 18892684 18379528 
1458.465 17837132 17269360 16679710 16071491 15448174 14813660 14172252 
1461.840 13528395 12886474 12250520 11624318 11011393 10415103 9838627 
1465.215 9284689 8755447 8252272 7775789 7326115 6903153 6506864 6137191 
1469.073 5794111 5477337 5186082 4919050 4674502 4450425 4244786 4055703 
1472.930 3881596 3721140 3573305 3437284 3312464 3198449 3094957 3001705 
1476.787 2918366 2844359 2778861 2720859 2669242 2622998 2581301 2543543 
1480.645 2509214 2477826 2448764 2421256 2394511 2367888 2341081 2314298 
1484.502 2288171 2263572 2241392 2222120 2205797 2191914 2179630 2168003 
1488.360 2156289 2144147 2131508 2118665 2105888 2093410 2081289 2069464 
1492.217 2057898 2046725 2036230 2026843 2018983 2012841 2008304 2004858 
1496.074 2001844 1998541 1994515 1989657 1984224 1978761 1973771 1969613 
1499.932 1966348 1963727 1961324 1958709 1955523 1951673 1947179 1942180 
1503.789 1936823 1931227 1925438 1919532 1913606 1907930 1902815 1898622 
1507.647 1895630 1893953 1893426 1893743 1894394 1894824 1894569 1893241 
1511.504 1890696 1886891 1881980 1876214 1869883 1863295 1856791 1850712 
1515.362 1845363 1841007 1837847 1835889 1834983 1834724 1834567 1833944 
1519.219 1832332 1829465 1825380 1820412 1815062 1809891 1805245 1801250 
1523.076 1797734 1794376 1790814 1786814 1782375 1777689 1773053 1768725 
1526.934 1764857 1761469 1758465 1755722 1753192 1750889 1748854 1747084 
1530.791 1745458 1743679 1741321 1737950 1733201 1726880 1719101 1710164 
1534.649 1700607 1691035 1682064 1674220 1667845 1663011 1659474 1656730 
1538.506 1654082 1650822 1646488 1641047 1634939 1628979 1624073 1620854 
1542.364 1619534 1619674 1620416 1620744 1619808 1617210 1613120 1608131 
1546.221 1602919 1598060 1593750 1589783 1585678 1580902 1575131 1568332 
1550.078 1560819 1553103 1545729 1539188 1533716 1529457 1526332 1524157 
1553.936 1522740 1521790 1521076 1520341 1519457 1518378 1517165 1515878 
1557.793 1514616 1513384 1512073 1510602 1508918 1507085 1505320 1503918 
1561.651 1503123 1503053 1503612 1504542 1505573 1506456 1507164 1507782 
1565.508 1508485 1509321 1510136 1510569 1510152 1508588 1505827 1502225 
1569.365 1498481 1495390 1493589 1493324 1494357 1496141 1498038 1499552 
1573.223 1500534 1501271 1502253 1503988 1506748 1510353 1514216 1517526 
1577.080 1519454 1519485 1517640 1514468 1510914 1508085 1506983 1508171 
1580.938 1511693 1516986 1523161 1529168 1534149 1537637 1539667 1540667 
1584.795 1541297 1542142 1543605 1545783 1548490 1551483 1554564 1557711 
1588.653 1561086 1564931 1569409 1574445 1579715 1584714 1588950 1592081 
1592.510 1594167 1595649 1597294 1600020 1604613 1611626 1621149 1632845 
1596.367 1645995 1659756 1673252 1685738 1696779 1706140 1713894 1720169 
1600.225 1725210 1729248 1732553 1735474 1738402 1741849 1746316 1752154 
1604.082 1759548 1768332 1778088 1788244 1798374 1808210 1817933 1827980 
1607.940 1838964 1851356 1865340 1880699 1896859 1913107 1928794 1943532 
1611.797 1957177 1969849 1981689 1992785 2003046 2012269 2020270 2026976 
1615.655 2032601 2037574 2042494 2047974 2054456 2062168 2071044 2080733 
1619.512 2090716 2100347 2109010 2116151 2121370 2124593 2126001 2126100 
1623.369 2125518 2124896 2124673 2125054 2125873 2126809 2127484 2127621 
1627.227 2127157 2126181 2124954 2123715 2122635 2121756 2121026 2120300 
1631.084 2119435 2118246 2116548 2114114 2110770 2106380 2100945 2094688 
1634.942 2087947 2081180 2074795 2069032 2063957 2059433 2055308 2051511 
1638.799 2048113 2045373 2043620 2043097 2043849 2045703 2048258 2050965 
1642.656 2053331 2054920 2055484 2054965 2053510 2051436 2049210 2047425 
1646.514 2046722 2047512 2050027 2054027 2058956 2064012 2068311 2071211 
1650.371 2072446 2072241 2071230 2070331 2070529 2072616 2076964 2083543 
1654.229 2091904 2101268 2110832 2119791 2127614 2134114 2139486 2144244 
1658.086 2149067 2154596 2161294 2169209 2178178 2187832 2197880 2208234 
1661.944 2219101 2230788 2243574 2257393 2271870 2286301 2299905 2312146 
1665.801 2322948 2332669 2342076 2352026 2363238 2376080 2390692 2406897 
1669.658 2424476 2443191 2462779 2482813 2502668 2521639 2538973 2554264 
1673.516 2567613 2579690 2591597 2604496 2619246 2636120 2654786 2674447 
1677.373 2694250 2713550 2732120 2750024 2767491 2784653 2801394 2817447 
1681.231 2832586 2846850 2860764 2875280 2891633 2910919 2933856 2960555 
1685.088 2990454 3022621 3055921 3089382 3122309 3154412 3185827 3216980 
1688.946 3248543 3281272 3315825 3352593 3391635 3432598 3475056 3518656 
1692.803 3563500 3610228 3660065 3714379 3774347 3840378 3912043 3988051 
1696.660 4066762 4146688 4227035 4307864 4389911 4474204 4561735 4653147 
1700.518 4748805 4848869 4953733 5064090 5180944 5305269 5437800 5578637 
1704.375 5727356 5883101 6045028 6212697 6386251 6566330 6753873 6949786 
1708.233 7154695 7368914 7592687 7826246 8070168 8325205 8592208 8871678 
1712.090 9163666 9467497 9782012 10105631 10436792 10774155 11116745 
1715.465 11463865 11815187 12170455 12529562 12892440 13259146 13629846 
1718.841 14005011 14385331 14771867 15165934 15569225 15983562 16410998 
1722.216 16853568 17313512 17793282 18295888 18825000 19385136 19981646 
1725.591 20620582 21308442 22052016 22858052 23733340 24684418 25717584 
1728.966 26838798 28053672 29367682 30786702 32317612 33968916 35750796 
1732.342 37674392 39750480 41987424 44389452 46955868 49681544 52558748 
1735.717 55579292 58736004 62022532 65431404 68950920 72562512 76239288 
1739.092 79947224 83648136 87303432 90876808 94334928 97645968 100778160 
1742.467 103698720 106375536 108779944 110890056 112692248 114180752 
1745.360 115355376 116219560 116779400 117044400 117028288 116749264 
1748.253 116228184 115485896 114540480 113406624 112096320 110621856 
1751.146 108997712 107241488 105372224 103407672 101361600 99242816 97056296 
1754.522 94805720 92496376 90136936 87739680 85319064 82889800 80465128 
1757.897 78055864 75670832 73317384 71002216 68731800 66512268 64349024 
1761.272 62246936 60210168 58242612 56348068 54530136 52791804 51134892 
1764.647 49559520 48063884 46644628 45297192 44016452 42797340 41634936 
1768.023 40524644 39462148 38443468 37464884 36523208 35615568 34739440 
1771.398 33892188 33070800 32271594 31490254 30721954 29961946 29205856 
1774.773 28450126 27692168 26930348 26163798 25392378 24616372 23836452 
1778.148 23053492 22268588 21482990 20698298 19916394 19139810 18371450 
1781.524 17614574 16872340 16147625 15442564 14758597 14096537 13456921 
1784.899 12840359 12247925 11681059 11141591 10631251 10151265 9702035 
1788.274 9282917 8892393 8528396 8188657 7871128 7574282 7296994 7038287 
1792.132 6797208 6572645 6363436 6168520 5987292 5819596 5665640 5525401 
1795.989 5398243 5282450 5175295 5073442 4973926 4874822 4775956 4678755 
1799.846 4585609 4498863 4419920 4348709 4283881 4223365 4165303 4108714 
1803.704 4053667 4000837 3950928 3903835 3858592 3813416 3766489 3716616 
1807.561 3663874 3609391 3555087 3502878 3454123 3409287 3368110 3329987 
1811.419 3294316 3260683 3228791 3198154 3168000 3137298 3105209 3071554 
1815.276 3037289 3004353 2975337 2952409 2936600 2927122 2921634 2916857 
1819.134 2909694 2898025 2881223 2859724 2834636 2806810 2776591 2743892 
1822.991 2708621 2671141 2632629 2594839 2559764 2528796 2502481 2480256 
1826.848 2460792 2442371 2423338 2402247 2378003 2349577 2316159 2277265 
1830.706 2233160 2185128 2135729 2088267 2046340 2012785 1988981 1974409 
1834.563 1966928 1963251 1960071 1954806 1946160 1934173 1919937 1904941 
1838.421 1890577 1877504 1865719 1854390 1842239 1827850 1809942 1787649 
1842.278 1760719 1729368 1694469 1657235 1619319 1582524 1548837 1519964 
1846.135 1497330 1481465 1472040 1467381 1465151 1462489 1457100 1447808 
1849.993 1435118 1420906 1407932 1398511 1393974 1393700 1395743 1397269 
1853.850 1395963 1390657 1381846 1371056 1360281 1350821 1342977 1335949 
1857.708 1328737 1320652 1312081 1304132 1298221 1295038 1293996 1293228 
1861.565 1290229 1282828 1270377 1253972 1236158 1220000 1207943 1200980 
1865.423 1198681 1199518 1201968 1204984 1208624 1213201 1219000 1225204 
1869.280 1229966 1230591 1224505 1210167 1188004 1160224 1130496 1102839 
1873.137 1080749 1066170 1059367 1058739 1061580 1064516 1064481 1059287 
1876.995 1048358 1032826 1015606 1000637 992027 992761 1003930 1024057 
1880.852 1049673 1075997 1098558 1114068 1121607 1122015 1117620 1111001 
1884.710 1104386 1098883 1094820 1091959 1090128 1089304 1089646 1091110 
1888.567 1093177 1094737 1094458 1091107 1084226 1074117 1061820 1048579 
1892.425 1035365 1022419 1009659 996609 983408 970883 960767 955190 956221 
1896.764 964762 980610 1001917 1025825 1048784 1067438 1078887 1081362 
1900.622 1074171 1057924 1034399 1006479 977585 951269 930568 917324 911680 
1904.961 912262 916387 921082 923685 922870 918841 913430 909275 909499 
1909.301 916221 930535 951459 976479 1001513 1021917 1032996 1031409 1015600 
1913.640 986888 948800 907272 868899 840096 825136 825664 839806 863272 
1917.980 889915 913746 929913 935793 930830 916164 893650 865188 832335 
1922.320 796746 760511 726941 700156 684890 684553 700335 729423 765549 
1926.659 799872 823753 830758 819475 793615 761720 734005 719798 724171 
1930.999 747039 782777 822679 857276 879867 887563 882248 868875 853851 
1935.338 842159 836409 835528 835996 832638 820922 797869 763693 721186 
1939.678 675998 634535 603266 586433 585626 598634 620877 645731 667547 
1944.018 682568 691188 696642 705010 721538 749364 786380 825763 856897 
1948.357 869070 854060 809815 740809 658156 575901 508707 467559 458030 
1952.697 478785 522655 577589 629761 664888 671509 642225 576866 482208 
1957.036 373280 270431 196663 170993 204216 293293 421621 561144 680811 
1961.376 753676 765725 718436 628967 523728 432175 377732 374118 422422 
1965.716 514031 633192 762952 886578 990991 1065191 1100911 1091770 1035235 
1970.055 932900 793735 632298 468781 322664 210327 138804 105975 99918 
1974.395 105549 108523 103228 92832 90699 112845 172503 271204 398297 531723 
1979.217 647506 725267 756474 744146 701778 647739 600547 573530 573484 
1983.556 598755 642931 696059 749034 793787 825821 843081 846570 839102 
1987.896 825566 810935 800377 795781 796519 797265 791440 771972 735839 
1992.235 684759 626921 573168 534190 515601 516822 530228 545772 554529 
1996.575 553525 545661 539346 542341 558031 580566 596667 587777 538193 
2000.915 439299 295839 123655 -52322 -205781 -314566 -365265 -353026 -281734 
2005.254 -158883 4372 196443 401760 602270 775542 899159 952928 926309 
2009.594 821288 655280 457948 267043 119639 45308 57709 152409 306189 483881 
2014.416 645499 758044 802503 779659 706857 614227 532807 487363 487002 
2018.755 525437 582857 634970 658796 641491 580799 485324 368342 245990 
2023.095 131987 38647 -24306 -47384 -23613 50931 171942 326834 494012 648472 
2027.917 766338 833348 847052 818860 767914 715061 674710 652093 641872 
2032.256 634442 619860 595154 563139 532586 510801 500269 494079 480290 
2036.596 444677 379802 287942 184306 91815 36434 36679 99350 215502 364699 
2041.417 518877 652806 748557 800858 815169 804625 783814 765696 757955 
2045.757 765175 789786 835433 905592 1003102 1124953 1260292 1389018 1486704 
2050.097 1530557 1507019 1414971 1267532 1087744 904771 746450 634678 579959 
2054.436 580711 623675 689090 755806 807374 834428 835986 817155 787234 
2058.776 755377 728875 711269 702890 701183 703535 707838 714325 724234 
2063.115 739661 760794 785660 809060 824784 827111 813992 787579 755373 
2067.455 726797 711813 715820 739227 776087 816827 850492 868451 865764 
2071.795 842424 801400 747716 686294 621813 557950 498692 447848 409740 
2076.134 387601 383359 396276 423606 460686 502860 545857 587188 625219 
2080.474 659277 688264 711129 726006 731794 727845 714960 694313 667651 
2084.813 635906 599879 559811 516822 473410 433903 403782 388365 391102 
2089.153 412370 448583 493223 538025 575596 600859 612686 613462 608710 
2093.493 605051 609004 624808 654247 695587 744799 795847 842486 878597 
2097.832 900178 905026 893997 869875 837729 803067 771582 747007 731172 
2102.172 722761 718489 713267 702466 682502 652736 615129 574263 535692 
2106.511 504902 485358 478541 483418 497926 519407 546288 577424 612286 
2110.851 649299 685405 715357 732852 731439 707083 659062 591399 511454 
2115.191 428964 353217 291761 248402 223444 214149 216476 226074 239738 
2119.530 255453 272579 290435 308155 323572 333707 334771 323793 298955 
2123.870 261198 213420 160857 108773 61458 20058 -17452 -56226 -102184 
2128.209 -160438 -232289 -314776 -400380 -480272 -545964 -593308 -622629 
2132.067 -639398 -650910 -663484 -678996 -694148 -700952 -690811 -657940 
2135.924 -603868 -537446 -474046 -430989 -423295 -459232 -538771 -653202 
2139.782 -788397 -926805 -1052223 -1151158 -1215560 -1242121 -1232971 
2143.157 -1194560 -1137862 -1076061 -1024586 -998206 -1009640 -1066036 
2146.532 -1168212 -1308714 -1473429 -1643558 -1799743 -1925891 -2014508 
2149.907 -2066956 -2093862 -2110971 -2135371 -2179504 -2248846 -2339668 
2153.283 -2442398 -2544895 -2636898 -2711044 -2763946 -2790149 -2781932 
2156.658 -2723764 -2598600 -2392480 -2107953 -1769885 -1427628 -1138412 
2160.033 -950017 -880100 -912904 -1005275 -1105199 -1166491 -1164500 
2163.408 -1098536 -990244 -871156 -773151 -714958 -700318 -717414 -748104 
2167.266 -773443 -781422 -767310 -733899 -686513 -631285 -572398 -513175 
2171.123 -455980 -404190 -360745 -329168 -310879 -306139 -313364 -332827 
2174.981 -365862 -416993 -489904 -586313 -700840 -821422 -929029 -1004276 
2178.838 -1031501 -1005420 -932412 -831443 -727488 -645053 -599602 -594037 
2182.696 -616343 -644862 -654187 -624459 -545970 -423541 -273870 -121719 
2186.553 8020 95813 133706 125314 84619 30073 -20672 -57382 -77657 -87589 
2191.375 -96087 -111466 -135901 -165244 -189274 -197121 -180512 -137532 
2195.232 -72661 4306 82958 154427 214912 263991 304238 337853 365629 385712 
2200.054 395319 391423 373937 344652 308754 272458 242936 226150 227056 
2204.394 248156 289945 349003 419390 492108 557698 607537 637606 648315 
2208.733 645347 636645 629872 628830 632565 635151 629138 608458 571800 
2213.073 522487 468558 418481 378823 350816 330664 310655 282724 240679 
2217.412 183447 114335 41117 -27182 -81262 -114364 -122442 -105301 -65294 
2221.752 -7890 60408 131845 199713 258364 305447 340708 367035 388560 410344 
2226.574 435877 467915 506692 551299 599140 647234 691861 729805 757501 
2230.913 772848 774580 763969 743859 719646 697432 684024 684224 700815 
2235.253 732891 776721 825222 870606 904859 922678 921717 903909 873872 
2239.593 838719 804762 776623 755693 740671 728017 714401 697644 678272 
2243.932 658363 641391 629820 624969 625837 630646 637232 645006 654434 
2248.272 667563 685952 710200 739000 769753 799339 826135 849976 873125 
2252.611 898422 928385 963052 1000259 1035450 1063915 1082011 1088991 
2256.469 1087145 1081041 1075722 1075248 1081114 1092295 1105253 1115515 
2260.326 1118533 1111438 1092832 1063986 1027699 988683 951809 922088 902916 
2264.666 896050 900634 913985 932096 951242 968601 983808 998303 1015205 
2269.005 1037208 1066065 1101011 1139417 1176978 1209616 1234573 1251517 
2272.863 1262018 1269267 1276068 1284133 1292889 1300075 1302413 1297417 
2276.720 1284096 1264091 1240927 1219584 1204610 1199690 1206351 1224586 
2280.578 1252810 1289008 1330843 1376201 1422650 1467719 1508542 1542618 
2284.435 1568016 1584384 1592836 1596220 1597834 1600974 1607612 1618135 
2288.292 1630969 1643793 1653602 1658177 1656204 1647594 1633077 1613972 
2292.150 1591583 1567183 1541853 1516666 1492732 1471324 1453708 1440980 
2296.007 1433696 1431859 1434669 1440870 1448488 1455529 1459977 1460322 
2299.865 1455633 1445955 1432113 1415854 1399305 1384902 1374780 1370774 
2303.722 1373708 1383609 1399469 1419451 1441027 1461508 1478495 1490526 
2307.580 1497139 1499307 1498867 1498132 1498989 1502673 1509328 1518349 
2311.437 1528696 1539678 1550861 1562453 1574496 1586942 1599153 1610459 
2315.294 1620180 1628650 1637077 1647585 1662234 1682559 1708748 1739981 
2319.152 1774888 1812794 1854065 1900220 1952562 2010695 2070841 2125428 
2323.009 2164095 2176216 2153838 2094219 2000732 1882265 1751265 1620969 
2326.867 1502711 1404120 1328362 1274688 1239664 1218985 1208706 1205980 
2330.724 1208910 1216109 1226033 1236908 1246818 1254190 1258222 1259117 
2334.582 1257536 1254482 1250566 1246005 1240604 1234135 1226731 1219128 
2338.439 1212456 1207954 1206454 1208059 1212083 1217309 1222325 1225977 
2342.296 1227628 1227205 1225037 1221642 1217476 1212813 1207700 1202058 
2346.154 1195777 1188777 1180957 1172561 1163815 1155270 1147558 1141448 
2350.011 1137557 1136333 1137755 1141274 1145819 1149987 1152264 1151341 
2353.869 1146451 1137409 1124807 1109850 1094053 1079183 1066479 1056778 
2357.726 1050159 1045977 1043009 1039835 1035024 1027637 1017127 1003668 
2361.583 987850 970724 953358 936888 922041 909324 898722 889981 882566 
2365.923 875923 869688 863958 859214 856415 856613 860824 869445 882213 
2370.263 898116 915535 932455 946998 957535 963149 963630 959619 952573 
2374.602 944612 938101 935551 938768 948645 964648 984978 1006807 1027074 
2378.942 1043110 1053356 1057688 1057320 1054163 1050264 1047001 1044988 
2382.799 1043812 1042827 1041338 1039459 1038057 1038705 1043123 1052606 
2386.657 1067255 1085827 1105697 1123508 1135831 1140230 1135866 1123943 
2390.514 1107533 1090904 1078545 1074070 1079228 1093570 1114436 1137776 
2394.372 1158981 1174203 1181118 1179573 1171203 1159104 1146736 1137216 
2398.229 1132271 1132121 1135443 1140036 1143344 1143485 1139533 1131798 
2402.086 1121478 1110415 1100088 1091682 1085543 1081824 1080576 1082524 
2405.944 1088742 1100739 1119416 1144612 1174309 1204825 1231405 1249439 
2409.801 1255555 1248986 1231446 1207145 1181289 1159098 1144240 1138229 
2413.659 1140130 1147150 1155290 1160553 1159619 1150794 1133921 1110827 
2417.516 1084598 1059142 1038286 1025203 1021554 1027328 1040863 1059436 
2421.374 1079755 1098845 1114327 1125072 1130717 1132013 1130144 1126901 
2425.231 1124194 1123954 1127557 1135795 1148043 1162519 1176448 1186658 
2429.088 1190516 1186714 1175591 1159182 1140268 1121774 1105588 1092297 
2432.946 1081242 1071153 1060767 1049678 1038447 1028427 1021297 1018443 
2436.803 1020413 1027032 1037242 1049800 1063244 1076533 1088537 1098555 
2440.661 1105848 1110006 1110928 1109112 1105373 1101011 1097138 1094589 
2444.518 1093463 1093359 1093354 1092824 1091418 1089553 1088146 1088516 
2448.375 1091393 1097035 1104672 1112976 1120234 1125280 1127742 1128333 
2452.233 1128605 1130502 1135513 1144315 1156211 1169536 1181864 1190907 
2456.090 1195025 1193729 1187781 1178974 1169407 1161311 1156202 1154896 
2459.948 1157092 1161843 1167395 1171911 1173403 1170308 1161653 1147501 
2463.805 1128667 1106908 1084222 1062786 1044026 1028662 1016420 1006527 
2467.663 997811 989471 981055 972677 964710 957657 951914 947656 945098 
2472.002 944671 946822 952289 961206 973262 986912 1000023 1010103 1015409 
2476.342 1015606 1012076 1007741 1006255 1010554 1022042 1039623 1060351 
2480.199 1079878 1094177 1100469 1098207 1088826 1075336 1060988 1048655 
2484.057 1039917 1035381 1034576 1036989 1042030 1049544 1059125 1070450 
2487.914 1082513 1094198 1104174 1111612 1116270 1118770 1120063 1121297 
2491.771 1123057 1125511 1127981 1129802 1130296 1129454 1127727 1126132 
2495.629 1125698 1127378 1131532 1138096 1146570 1156411 1166800 1177220 
2499.486 1187100 1196180 1204260 1211522 1218184 1224739 1231348 1237783 
2503.344 1243366 1246953 1247210 1243337 1235164 1223622 1210338 1197185 
2507.201 1185607 1176092 1168028 1160061 1150715 1139247 1126030 1112648 
2511.059 1101339 1094381 1092968 1097139 1105533 1116033 1126203 1134424 
2514.916 1140047 1143575 1146203 1149490 1154463 1161630 1170402 1179507 
2518.773 1187249 1192033 1192691 1188885 1181210 1171110 1160365 1150832 
2522.631 1143730 1139606 1137965 1137803 1137800 1137054 1135276 1133142 
2526.488 1131903 1133244 1138343 1147768 1160863 1175811 1189945 1200450 
2530.346 1204840 1201959 1192158 1177546 1161464 1147727 1139422 1138146 
2534.203 1143275 1152547 1162392 1169677 1172328 1170317 1165442 1160557 
2538.061 1158381 1160659 1167255 1176703 1186692 1195230 1201193 1204706 
2541.918 1206485 1207540 1208067 1207572 1204852 1198834 1189004 1176111 
2545.775 1161689 1148287 1138214 1133552 1135481 1144558 1160449 1182281 
2549.633 1208344 1236346 1263287 1285936 1301489 1308151 1305643 1295363 
2553.490 1279645 1261510 1243311 1226751 1212524 1200845 1191791 1185799 
2557.348 1183462 1185313 1191353 1200970 1212811 1225525 1237900 1249742 
2561.205 1261168 1272815 1284879 1297137 1308534 1318183 1325256 1329840 
2565.063 1332601 1334563 1336208 1337277 1336710 1333320 1326449 1316951 
2568.920 1306975 1299736 1298136 1303929 1316644 1334004 1352192 1367422 
2572.777 1376678 1378671 1373638 1363120 1349335 1334606 1320909 1310024 
2576.635 1303101 1300822 1302768 1307834 1313904 1318810 1320803 1319606 
2580.492 1316444 1314077 1315638 1323596 1338596 1359226 1382129 1403250 
2584.350 1418894 1427026 1427440 1421805 1412655 1402695 1394000 1387836 
2588.207 1384648 1384419 1386831 1391633 1398234 1406021 1413889 1420708 
2592.064 1425269 1426848 1425130 1420643 1414380 1407705 1402221 1399426 
2595.922 1400443 1406130 1416489 1430913 1448022 1466046 1482980 1497165 
2599.779 1507507 1513733 1516223 1515823 1513308 1509289 1503950 1497289 
2603.637 1489297 1480202 1470553 1461155 1452838 1446346 1441969 1439769 
2607.494 1439414 1440599 1442975 1446376 1450697 1456019 1462377 1469841 
2611.352 1478457 1488357 1499489 1511801 1524953 1538436 1551530 1563444 
2615.209 1573388 1580919 1585781 1588244 1588950 1588795 1588858 1590145 
2619.066 1593263 1598300 1604616 1610978 1615934 1618240 1617375 1613962 
2622.924 1609596 1606648 1607287 1613032 1623932 1638648 1654651 1668940 
2626.781 1678988 1683342 1681733 1675149 1665311 1654170 1643504 1634806 
2630.639 1629041 1626943 1628745 1634280 1642764 1652888 1662929 1671283 
2634.496 1676753 1679053 1678678 1676894 1675108 1674510 1675420 1677668 
2638.354 1680476 1683028 1684755 1685711 1686214 1686833 1688029 1689918 
2642.211 1692261 1694694 1696896 1698779 1700565 1702618 1705330 1709003 
2646.068 1713577 1718972 1724822 1730835 1736584 1741613 1745280 1746952 
2649.926 1745889 1741677 1734415 1724645 1713338 1701805 1691072 1681772 
2653.783 1673896 1667045 1660432 1653486 1645834 1637590 1629004 1620497 
2657.641 1612129 1603848 1595154 1585636 1574927 1563000 1550185 1536921 
2661.498 1523572 1510444 1497402 1484214 1470682 1456888 1443154 1430175 
2665.355 1418597 1408902 1401118 1394835 1389336 1383996 1378512 1373142 
2669.213 1368602 1365797 1365471 1367804 1372251 1377702 1382789 1386238 
2673.070 1387285 1385895 1382523 1378064 1373362 1368982 1365164 1361812 
2676.928 1358639 1355455 1352136 1348806 1345700 1343050 1341172 1340291 
2680.785 1340505 1341905 1344349 1347467 1350596 1352835 1353177 1350766 
2684.643 1345133 1336384 1325266 1312975 1300852 1290157 1281790 1276258 
2688.500 1273704 1274005 1276936 1282237 1289470 1298040 1307100 1315587 
2692.357 1322363 1326507 1327512 1325438 1320791 1314427 1307230 1299941 
2696.215 1292893 1286232 1279866 1273788 1268178 1263497 1260351 1259338 
2700.072 1260774 1264680 1270442 1277193 1283675 1288783 1291539 1291507 
2703.930 1288785 1284059 1278435 1273190 1269466 1268061 1269211 1272566 
2707.787 1277263 1282208 1286347 1288944 1289600 1288404 1285782 1282315 
2711.645 1278474 1274641 1270852 1267125 1263407 1259759 1256456 1253943 
2715.502 1252674 1253042 1255166 1258791 1263337 1267985 1271933 1274617 
2719.359 1275790 1275725 1274913 1274045 1273843 1274725 1276856 1280128 
2723.217 1284140 1288482 1292569 1296029 1298540 1299984 1300416 1300216 
2727.074 1299880 1300027 1301217 1303814 1307701 1312431 1317025 1320441 
2730.932 1321672 1320120 1315677 1308769 1300276 1291258 1282751 1275550 
2734.789 1270161 1266868 1265625 1266169 1268151 1270969 1273925 1276423 
2738.646 1277914 1278194 1277309 1275735 1274051 1272944 1272864 1274043 
2742.504 1276407 1279700 1283490 1287437 1291110 1294270 1296502 1297511 
2746.361 1297012 1294922 1291358 1286808 1281871 1277281 1273556 1271062 
2750.219 1269793 1269463 1269723 1270286 1270979 1271828 1273056 1274819 
2754.076 1277274 1280477 1284410 1288917 1293711 1298443 1302585 1305538 
2757.934 1306708 1305689 1302434 1297283 1290974 1284590 1279129 1275385 
2761.791 1273638 1273629 1274592 1275610 1275638 1274046 1270575 1265546 
2765.648 1259785 1254411 1250536 1249031 1250184 1253599 1258091 1262111 
2769.506 1263963 1262430 1257056 1248453 1238029 1227741 1219408 1214284 
2773.363 1212667 1214019 1217192 1220998 1224508 1227498 1230192 1233167 
2777.221 1236848 1241340 1246168 1250570 1253569 1254615 1253548 1250899 
2781.078 1247680 1245271 1244946 1247677 1253753 1262851 1273929 1285506 
2784.936 1296061 1304346 1309638 1312086 1312471 1312073 1312263 1314105 
2788.793 1318162 1324341 1332214 1341100 1350494 1360052 1369565 1378822 
2792.650 1387230 1393994 1398102 1398736 1395596 1389336 1381313 1373559 
2796.508 1368098 1366507 1369386 1376297 1385874 1396356 1405979 1413495 
2800.365 1418272 1420525 1420845 1420178 1419343 1418995 1419352 1420508 
2804.223 1422303 1424625 1427475 1430984 1435444 1441158 1448210 1456460 
2808.080 1465410 1474176 1481824 1487571 1490956 1492069 1491477 1490196 
2811.938 1489367 1490113 1493170 1499022 1507650 1518699 1531471 1545033 
2815.795 1558214 1569973 1579346 1585866 1589552 1591129 1591581 1592165 
2819.652 1593753 1596780 1601143 1606200 1611295 1616024 1620261 1624537 
2823.510 1629526 1635825 1643512 1652159 1660677 1667784 1672397 1673945 
2827.367 1672588 1669188 1664951 1661245 1658982 1658628 1659937 1662235 
2831.225 1664610 1666301 1666851 1666355 1665297 1664524 1664874 1667013 
2835.082 1671162 1677084 1684219 1691831 1699266 1706085 1712114 1717440 
2838.939 1722186 1726447 1730233 1733561 1736337 1738837 1741339 1744385 
2842.797 1748473 1754034 1761270 1770172 1780636 1792548 1805777 1820255 
2846.654 1835811 1852045 1868267 1883596 1896977 1907584 1914896 1918912 
2850.512 1920024 1919024 1916777 1914117 1911830 1910502 1910585 1912310 
2854.369 1915716 1920631 1926461 1932591 1938281 1943050 1946715 1949573 
2858.227 1952239 1955455 1959711 1965182 1971550 1978103 1984032 1988712 
2862.084 1991764 1993439 1994295 1995210 1997175 2001118 2007725 2017721 
2865.941 2031360 2048934 2070476 2095825 2124716 2156688 2191262 2228130 
2869.799 2267026 2308156 2351939 2399117 2450316 2506058 2566080 2629532 
2873.656 2694575 2759002 2820296 2876456 2926377 2970119 3008774 3044113 
2877.514 3077900 3111317 3144410 3176222 3205018 3228974 3246604 3257482 
2881.371 3261859 3260748 3255168 3245890 3233002 3216210 3194944 3168949 
2885.229 3138639 3105062 3069877 3034865 3001634 2971175 2943876 2919670 
2889.086 2898174 2879064 2862194 2847672 2835489 2825693 2817844 2811395 
2892.943 2805541 2799589 2793163 2786471 2780208 2775277 2772688 2772984 
2896.801 2776104 2781375 2787570 2793581 2798524 2802269 2805310 2808753 
2900.658 2813661 2820715 2829865 2840278 2850605 2859491 2865989 2870008 
2904.516 2872168 2873659 2875721 2879331 2884784 2891825 2899717 2907739 
2908.373 2915460 2922837 2930237 2938459 2948222 2960232 2974912 2992522 
2912.230 3013076 3036386 3062152 3089987 3119283 3149654 3180577 3211775 
2916.088 3242980 3274055 3304760 3334827 3363878 3391594 3417904 3443066 
2919.945 3467802 3493158 3520258 3550080 3583135 3619386 3658440 3699554 
2923.803 3742010 3785172 3828463 3871651 3914410 3956684 3998638 4040847 
2927.660 4084476 4131181 4182810 4241200 4307355 4381463 4462627 4549342 
2931.518 4639821 4732691 4827333 4924248 5024642 5130299 5243015 5364346 
2935.375 5495505 5637465 5790846 5956418 6134663 6325712 6528919 6742582 
2939.232 6963768 7188474 7412016 7629462 7836278 8028663 8203611 8358969 
2943.090 8493179 8605099 8693699 8758178 8797923 8812809 8803137 8770083 
2946.947 8715264 8641028 8549897 8444744 8328125 8202647 8070580 7933972 
2950.805 7794629 7654034 7513427 7373665 7235203 7098201 6962593 6828306 
2954.662 6695562 6564974 6437649 6315040 6198709 6090172 5990337 5899556 
2958.520 5817508 5743330 5675740 5613428 5555051 5499569 5446099 5394078 
2962.377 5343185 5293342 5244779 5197887 5153020 5110474 5070311 5032333 
2966.234 4996286 4961942 4929363 4898939 4871227 4846956 4826560 4810021 
2970.092 4796953 4786751 4778864 4773021 4769626 4769347 4773075 4781557 
2973.949 4794992 4813197 4835566 4861436 4890493 4922782 4958706 4998773 
2977.807 5043358 5092519 5146078 5203888 5266031 5333366 5407140 5489132 
2981.664 5581162 5684754 5800865 5929797 6071339 6224998 6390197 6566500 
2985.521 6753609 6951318 7159195 7376509 7601779 7832903 8066977 8300507 
2989.379 8529664 8750935 8961184 9158172 9340353 9506780 9656504 9788276 
2993.236 9900206 9990031 10055652 10095696 10110116 10100502 10069594 
2996.612 10020816 9957357 9881575 9794720 9697192 9588969 9470182 9341501 
3000.469 9204117 9059442 8908854 8753206 8592881 8427992 8258684 8085317 
3004.326 7908628 7729632 7549328 7368565 7187923 7007770 6828525 6650498 
3008.184 6474188 6299965 6128282 5959455 5793784 5631908 5474790 5323516 
3012.041 5179194 5042442 4913078 4789891 4671117 4554670 4438981 4323327 
3015.899 4208236 4094921 3985131 3880506 3782013 3690045 3604351 3524196 
3019.756 3448819 3377230 3308604 3242085 3177015 3113054 3050333 2989355 
3023.614 2931039 2876142 2824976 2777069 2731325 2686216 2640506 2593487 
3027.471 2545550 2497830 2451993 2409684 2372107 2339607 2312060 2288629 
3031.328 2268269 2249674 2231556 2212464 2191243 2167076 2139841 2110334 
3035.186 2080141 2051394 2026068 2005427 1989787 1978324 1969605 1962019 
3039.043 1954400 1946156 1937316 1928189 1919120 1909998 1900546 1890274 
3042.901 1878772 1866030 1852457 1838666 1825281 1812814 1801408 1790982 
3046.758 1781259 1771840 1762532 1753313 1744471 1736599 1730629 1727606 
3050.615 1728319 1732955 1740892 1750388 1759151 1764605 1764914 1759235 
3054.473 1748397 1734254 1719195 1705477 1694392 1686114 1680102 1675463 
3058.330 1671714 1669053 1668300 1670380 1675664 1683559 1692494 1700250 
3062.188 1704762 1704650 1699799 1691287 1680963 1670843 1662458 1656436 
3066.045 1652603 1650034 1647700 1644801 1641231 1637598 1635035 1634870 
3069.903 1638103 1644848 1654315 1664600 1673250 1677853 1676848 1669770 
3073.760 1657751 1643006 1628228 1615809 1607213 1602761 1601743 1602861 
3077.617 1604866 1606831 1608342 1609379 1610127 1610462 1610310 1609540 
3081.475 1608128 1606375 1604683 1603466 1602911 1602830 1602884 1602700 
3085.332 1602123 1601401 1601020 1601301 1602245 1603230 1603460 1601919 
3089.190 1598347 1593147 1587594 1583148 1581157 1582212 1585952 1591269 
3093.047 1596982 1602148 1606464 1610242 1614001 1617896 1621563 1623903 
3096.905 1623792 1620254 1613338 1603866 1593445 1583853 1576431 1571719 
3100.762 1569396 1568600 1568501 1568578 1568864 1569867 1572202 1576244 
3104.619 1581891 1588486 1595011 1600382 1603744 1604743 1603357 1600021 
3108.477 1595350 1589917 1584337 1578942 1573974 1569661 1566161 1563650 
3112.334 1562348 1562340 1563364 1564921 1566156 1565928 1563330 1557955 
3116.192 1550195 1541202 1532781 1526677 1524207 1525540 1529904 1535598 
3120.049 1540853 1544448 1546109 1546798 1548031 1551451 1557981 1567444 
3123.906 1578638 1589690 1598840 1604923 1607769 1607975 1606557 1604466 
3127.764 1602208 1599749 1596754 1592920 1588392 1583757 1580014 1578032 
3131.621 1578559 1581573 1586752 1593171 1600034 1606522 1612128 1616338 
3135.479 1618774 1618991 1616685 1611843 1604970 1597201 1590135 1585329 
3139.336 1583868 1585805 1590144 1595009 1598266 1598111 1593985 1586582 
3143.194 1577997 1570948 1568059 1571155 1580525 1594959 1611962 1628297 
3147.051 1640798 1647044 1645818 1637413 1623389 1606163 1588575 1573053 
3150.908 1561351 1554113 1550961 1550786 1552185 1553934 1555355 1556428 
3154.766 1557660 1559822 1563656 1569543 1577400 1586731 1596784 1606662 
3158.623 1615473 1622413 1626855 1628460 1627257 1623775 1618988 1614327 
3162.481 1611117 1610345 1612435 1616966 1622888 1628897 1633825 1637131 
3166.338 1638707 1639052 1638771 1638181 1637209 1635334 1632065 1627000 
3170.196 1620361 1612880 1605737 1600113 1597007 1596941 1599907 1605554 
3174.053 1613362 1622696 1632937 1643427 1653346 1661863 1667985 1671030 
3177.910 1670569 1666645 1659851 1651191 1642006 1633725 1627574 1624557 
3181.768 1625187 1629264 1636147 1644666 1653423 1661158 1667070 1670889 
3185.625 1672894 1673703 1673881 1673718 1673073 1671477 1668458 1663855 
3189.483 1658000 1651630 1645943 1641902 1640341 1641510 1645311 1651276 
3193.340 1658806 1667238 1675888 1684090 1691246 1696924 1701168 1704406 
3197.198 1707644 1712009 1718350 1726946 1737134 1747583 1756532 1762532 
3201.055 1764774 1763396 1759310 1753977 1748707 1744574 1742117 1741637 
3204.912 1743179 1746775 1752351 1759521 1767329 1774428 1779152 1780033 
3208.770 1776338 1768410 1757604 1746053 1735942 1729061 1726304 1727511 
3212.627 1731823 1737849 1744212 1749693 1753353 1754705 1753533 1749944 
3216.485 1744488 1737853 1731130 1725312 1721307 1719762 1720840 1724456 
3220.342 1730332 1737905 1746573 1755471 1763560 1769653 1772643 1771772 
3224.199 1766888 1758670 1748578 1738332 1729739 1724175 1722257 1723976 
3228.057 1728727 1735667 1743899 1752566 1760771 1767721 1772657 1774939 
3231.914 1774293 1770968 1765711 1759769 1754368 1750637 1749194 1750160 
3235.772 1753211 1757717 1763050 1768700 1774254 1779309 1783530 1786458 
3239.629 1787518 1786294 1782646 1776745 1769407 1761751 1755182 1750917 
3243.487 1749861 1752048 1756661 1762181 1766634 1768378 1766560 1761474 
3247.344 1754568 1747986 1743909 1743634 1747206 1753297 1759762 1764341 
3251.201 1765617 1763414 1758820 1753691 1749935 1748764 1750475 1754294 
3255.059 1759052 1763561 1766925 1768847 1769218 1767906 1764834 1759674 
3258.916 1752632 1744341 1736224 1730061 1727715 1730234 1737590 1748582 
3262.774 1761043 1772678 1781612 1786968 1788798 1788022 1785765 1782961 
3266.631 1780177 1777481 1774838 1772238 1770043 1768956 1769842 1773328 
3270.489 1779931 1789423 1801015 1813456 1825232 1834881 1841403 1844312 
3274.346 1844045 1841601 1838322 1835404 1833332 1831688 1829087 1823769 
3278.203 1814257 1800112 1782344 1763562 1747185 1736527 1733800 1739327 
3282.061 1751317 1766428 1780707 1790729 1794539 1792048 1785114 1776493 
3285.918 1769357 1766023 1767550 1773400 1781943 1790788 1797671 1800892 
3289.776 1799997 1795536 1788910 1781874 1775863 1771705 1769391 1768203 
3293.633 1767081 1765207 1762305 1758783 1755558 1753770 1754193 1756937 
3297.490 1761419 1766423 1770642 1772959 1773041 1771097 1767968 1764739 
3301.348 1762328 1761345 1761945 1763920 1766970 1770652 1774734 1778906 
3305.205 1782869 1786190 1788391 1789096 1788069 1785479 1781822 1777786 
3309.063 1774083 1771066 1768726 1766774 1764755 1762513 1760359 1759127 
3312.920 1759960 1763906 1771510 1782374 1795332 1808540 1820084 1828405 
3316.778 1832744 1833255 1830772 1826428 1821349 1816424 1812266 1809310 
3320.635 1808002 1808832 1812249 1818330 1826598 1835862 1844415 1850249 
3324.492 1851755 1847996 1839258 1826735 1812480 1798803 1787991 1781786 
3328.350 1781341 1786981 1798285 1814107 1832706 1851893 1869412 1883180 
3332.207 1891863 1894990 1893105 1887649 1880368 1872895 1866428 1861313 
3336.065 1857249 1853475 1849197 1843864 1837399 1830216 1823019 1816896 
3339.922 1812743 1811391 1813267 1818270 1825776 1834775 1843889 1851784 
3343.780 1857583 1860915 1862227 1862428 1862584 1863358 1864716 1865894 
3347.637 1865579 1862634 1856475 1847583 1837408 1827871 1820895 1817514 
3351.494 1817618 1820118 1823326 1825771 1826720 1826375 1825782 1826157 
3355.352 1828322 1832278 1837124 1841510 1844219 1844766 1843554 1841666 
3359.209 1840342 1840189 1840938 1841123 1838895 1832617 1821736 1807152 
3363.067 1791111 1776500 1766059 1761224 1761872 1766232 1771542 1774912 
3366.924 1774251 1768859 1759603 1748470 1737990 1730693 1728330 1731730 
3370.781 1740838 1754697 1771851 1790618 1809313 1826545 1841328 1853172 
3374.639 1862111 1868458 1872781 1875461 1876590 1875986 1873227 1867759 
3378.496 1859398 1848406 1835755 1822898 1811626 1803708 1800461 1802476 
3382.354 1809528 1820476 1833719 1847387 1859664 1869174 1875098 1877149 
3386.211 1875541 1870671 1863118 1853449 1842357 1830637 1819313 1809623 
3390.069 1802853 1799903 1801251 1806535 1814813 1824698 1834666 1843351 
3393.926 1849898 1853794 1854752 1852680 1847303 1838644 1826952 1812990 
3397.783 1798193 1784294 1773218 1766255 1763815 1765479 1769994 1775799 
3401.641 1781708 1787038 1791867 1796640 1801791 1807321 1812716 1816992 
3405.498 1819009 1818067 1814222 1808423 1802371 1798031 1797257 1801135 
3409.356 1809794 1821990 1835757 1848489 1857665 1861476 1859323 1851950 
3413.213 1841414 1830360 1821526 1816778 1816680 1820442 1826072 1831166 
3417.071 1833580 1831970 1826117 1816836 1805407 1793414 1781993 1771899 
3420.928 1763420 1756397 1750484 1745338 1740730 1736534 1732911 1730217 
3424.785 1729003 1729843 1733003 1738393 1745299 1752462 1758362 1761655 
3428.643 1761535 1757989 1751797 1744270 1736857 1730891 1727292 1726649 
3432.500 1729273 1735362 1744894 1757709 1773143 1790023 1806840 1821935 
3436.358 1834039 1842527 1847559 1849906 1850615 1850725 1850880 1851417 
3440.215 1852368 1853794 1855716 1858273 1861317 1864372 1866608 1866974 
3444.073 1864520 1858865 1850284 1839899 1829073 1819284 1811667 1806694 
3447.930 1804542 1805118 1808227 1813778 1821447 1830751 1840671 1850027 
3451.787 1857488 1862171 1863948 1863525 1862210 1861462 1862452 1865598 
3455.645 1870553 1876495 1882370 1887307 1890783 1892462 1892285 1890054 
3459.502 1885709 1879356 1871631 1863695 1857255 1854030 1855182 1860853 
3463.360 1869930 1880254 1889326 1895110 1896955 1895719 1893971 1895002 
3467.217 1901931 1916624 1938911 1966598 1995777 2021811 2040667 2049763 
3471.074 2048742 2039548 2025758 2011849 2001797 1998366 2002504 2013328 
3474.932 2028531 2045385 2061219 2074361 2084225 2091301 2096849 2102199 
3478.789 2108533 2116529 2126176 2137007 2148333 2159370 2169768 2179362 
3482.647 2188607 2198219 2209250 2222722 2239398 2259642 2283189 2308975 
3486.504 2335346 2360274 2381727 2398187 2409263 2415668 2419550 2423796 
3490.362 2431593 2445351 2466145 2493168 2523897 2554641 2581573 2601629 
3494.219 2613341 2617342 2615700 2611572 2608267 2608403 2613583 2624236 
3498.076 2639727 2658633 2679175 2698981 2715631 2726797 2730656 2726426 
3501.934 2714754 2697751 2678762 2661305 2648287 2641232 2639942 2642704 
3505.791 2647097 2651114 2653583 2654716 2655661 2657823 2662140 2668587 
3509.649 2675983 2682553 2686176 2685089 2678046 2664523 2644687 2619329 
3513.506 2590003 2558768 2528312 2501512 2480806 2467555 2461464 2460605 
3517.364 2461760 2461375 2456524 2445819 2429675 2410293 2390482 2373085 
3521.221 2360069 2352050 2348343 2347290 2346651 2344246 2338211 2327516 
3525.078 2312052 2292720 2271465 2250704 2232941 2219846 2212002 2208296 
3528.936 2206593 2204320 2199318 2190743 2179105 2166112 2153626 2142824 
3532.793 2133585 2124523 2113441 2098510 2079137 2056366 2032679 2011338 
3536.651 1995266 1986171 1984316 1988494 1996544 2006188 2015527 2023229 
3540.508 2028651 2031710 2032723 2032406 2031754 2032185 2034972 2041222 
3544.365 2051127 2063880 2077625 2089721 2097568 2098902 2092622 2078955 
3548.223 2059316 2036005 2011762 1989279 1970724 1957552 1950121 1947811 
3552.080 1949173 1952214 1955174 1956774 1956754 1955779 1955126 1956119 
3555.938 1959438 1964776 1970962 1976506 1980093 1981257 1980307 1978067 
3559.795 1975301 1971961 1967269 1959971 1949039 1934770 1918909 1904563 
3563.653 1895294 1893710 1900673 1914455 1931603 1947824 1959312 1963969 
3567.510 1961816 1954659 1945214 1935910 1928208 1922349 1917699 1913106 
3571.367 1907878 1901822 1895417 1889646 1885695 1884499 1886635 1891997 
3575.225 1899818 1908433 1915756 1919326 1917160 1908383 1893735 1875592 
3579.082 1857483 1843055 1834854 1833576 1837761 1844385 1850061 1852268 
3582.940 1850451 1845834 1841229 1839337 1841748 1848102 1856033 1861742 
3586.797 1861511 1852849 1835428 1811341 1784522 1759888 1742084 1734066 
3590.655 1736777 1748681 1766125 1784226 1797914 1803189 1798072 1782823 
3594.512 1759972 1733336 1707059 1684500 1667467 1656152 1649532 1645958 
3598.369 1644155 1643255 1643222 1644503 1647242 1651345 1656305 1661230 
3602.227 1665301 1667985 1669149 1669119 1668328 1667393 1666855 1667380 
3606.084 1669487 1673623 1679910 1687771 1695947 1702737 1706204 1704932 
3609.942 1698389 1687250 1673436 1659450 1647953 1641159 1640434 1646194 
3613.799 1658017 1674782 1694980 1716905 1738681 1758673 1775643 1788752 
3617.656 1797865 1803233 1805341 1804745 1801856 1797037 1790882 1784301 
3621.514 1778617 1775273 1775303 1778756 1784566 1790754 1795122 1796223 
3625.371 1794154 1790516 1788470 1791053 1800517 1817097 1838925 1862501 
3629.229 1883824 1899519 1907794 1908668 1903600 1895292 1886689 1880631 
3633.086 1879735 1885833 1899950 1921690 1949206 1979467 2008667 2033425 
3636.944 2051821 2064071 2072538 2080985 2093428 2112547 2138984 2171056 
3640.801 2205540 2238475 2266541 2287604 2300887 2306691 2305979 2299828 
3644.658 2289621 2276630 2262595 2249416 2238856 2232203 2229937 2231555 
3648.516 2235773 2241047 2246138 2250336 2253528 2256194 2258897 2262091 
3652.373 2266171 2271331 2277697 2285440 2294561 2304926 2316092 2327238 
3656.231 2337514 2346036 2352236 2355670 2356054 2353117 2346586 2336325 
3660.088 2322629 2306138 2288167 2270169 2253485 2238902 2226803 2217041 
3663.946 2209664 2205141 2204545 2208984 2218795 2232933 2248541 2261160 
3667.803 2265871 2258710 2237865 2204406 2162097 2116375 2072785 2035626 
3671.660 2007299 1988097 1976691 1971197 1969520 1969792 1970432 1969902 
3675.518 1966955 1960505 1950121 1936134 1919690 1902418 1885932 1871540 
3679.375 1859908 1851111 1844569 1839567 1835157 1830351 1824186 1815687 
3683.233 1804324 1790008 1773653 1756864 1741726 1730177 1723268 1720679 
3687.090 1720780 1721018 1718884 1712624 1701939 1687955 1672720 1658422 
3690.948 1646938 1639097 1634850 1633284 1633126 1632771 1630944 1626273 
3694.805 1618027 1606007 1591005 1574653 1559336 1547765 1542054 1543146 
3698.662 1550474 1562197 1575608 1588230 1598517 1606280 1612534 1618853 
3702.520 1626696 1636488 1647585 1658450 1667235 1672463 1673710 1671435 
3706.377 1666825 1661148 1655146 1648647 1640608 1629512 1614145 1594120 
3710.235 1570418 1545323 1521939 1503330 1491844 1488289 1491859 1500336 
3714.092 1510840 1520590 1527509 1530578 1529894 1526177 1520545 1513978 
3717.949 1507299 1501003 1495738 1492151 1490790 1491966 1495668 1501063 
3721.807 1507058 1512021 1515005 1515476 1513891 1511472 1509948 1510779 
3725.664 1514962 1522460 1532541 1543660 1554134 1562529 1567932 1570081 
3729.522 1569460 1566856 1563127 1558874 1554444 1549876 1545208 1540725 
3733.379 1537390 1536577 1539986 1548767 1562973 1580935 1599690 1615188 
3737.237 1623976 1623998 1615550 1601197 1584715 1569918 1559261 1553143 
3741.094 1550252 1548412 1545945 1542652 1539884 1539882 1544513 1553717 
3744.951 1565342 1575580 1580470 1577540 1567051 1551960 1537041 1526859 
3748.809 1524410 1529835 1540704 1552882 1562265 1566368 1564800 1559140 
3752.666 1552160 1546623 1544612 1547083 1554038 1564889 1578658 1593852 
3756.524 1608611 1620509 1627104 1626395 1617788 1602274 1582845 1563465 
3760.381 1548169 1539953 1539949 1547494 1560314 1575581 1590513 1602805 
3764.239 1610807 1613394 1609896 1600111 1584617 1564999 1543880 1524459 
3768.096 1509899 1502619 1503492 1511903 1525926 1542943 1560571 1576881 
3771.953 1590647 1601099 1607704 1609942 1607622 1601097 1591564 1581020 
3775.811 1571976 1566644 1566149 1570076 1576494 1582320 1584569 1580916 
3779.668 1570598 1554627 1535441 1516393 1500780 1491222 1489212 1494511 
3783.526 1505771 1520197 1534629 1546052 1552301 1552764 1548365 1541419 
3787.383 1534814 1530994 1531214 1535020 1540613 1545423 1547420 1545575 
3791.240 1540675 1534848 1530744 1530444 1534799 1542835 1552218 1559966 
3795.098 1563592 1561899 1555508 1546551 1538011 1532758 1532686 1538216 
3798.955 1548346 1560932 1573789 1585023 1593858 1600456 1605874 1611077 
3802.813 1616663 1622225 1626516 1627690 1624179 1615231 1601303 1584037 
3806.670 1566157 1550439 1539417 1534620 1536648 1545186 1559193 1577039 
3810.528 1596856 1616437 1633463 1645774 1651825 1651077 1644115 1632543 
3814.385 1618711 1604979 1593171 1584349 1578562 1575314 1573892 1573452 
3818.242 1573268 1572598 1570535 1566083 1558679 1548513 1536710 1525543 
3822.100 1517557 1514591 1517122 1523616 1531109 1536072 1535908 1529897 
3825.957 1519702 1508801 1501110 1499790 1505827 1518036 1533603 1548957 
3829.815 1561294 1569075 1572296 1571917 1569232 1565366 1560974 1556568 
3833.672 1552661 1550087 1549692 1552093 1557124 1563862 1570552 1575241 
3837.530 1576491 1573711 1567336 1558635 1549073 1540022 1532420 1526757 
3841.387 1523378 1522657 1524878 1530247 1538587 1549191 1561020 1572788 
3845.244 1583570 1592824 1600666 1607378 1613332 1618619 1623108 1626440 
3849.102 1628344 1628664 1627309 1624086 1618518 1609895 1597533 1581382 
3852.959 1562457 1543027 1526249 1515293 1512402 1518082 1530970 1548376 
3856.817 1567078 1584212 1598075 1608044 1614441 1618064 1619583 1619347 
3860.674 1617637 1614649 1610859 1606629 1602204 1597287 1591180 1582901 
3864.531 1571931 1558789 1545139 1533646 1526986 1526970 1533522 1544628 
3868.389 1556864 1566257 1570101 1567268 1559180 1548994 1540669 1537534 
3872.246 1541299 1551695 1566537 1582446 1595756 1603497 1603904 1596793 
3876.104 1583250 1565452 1546070 1527632 1512186 1501094 1494953 1493751 
3879.961 1497115 1504500 1515196 1528269 1542321 1555416 1565295 1569619 
3883.819 1566905 1556981 1541522 1523839 1508349 1499299 1499641 1510119 
3887.676 1529217 1553405 1578577 1600755 1617490 1628048 1633508 1635871 
3891.533 1637350 1639389 1642313 1645187 1646276 1643731 1636261 1623786 
3895.391 1607517 1589800 1573591 1561680 1556022 1557114 1563889 1573965 
3899.248 1584188 1591609 1594153 1591154 1583484 1573385 1563793 1557513 
3903.106 1556570 1561762 1572529 1587074 1602733 1616817 1627064 1631773 
3906.963 1630576 1623928 1613318 1600419 1587203 1575319 1565943 1559703 
3910.821 1556888 1557315 1560620 1566137 1572989 1580184 1586465 1590640 
3914.678 1591909 1589722 1584314 1576402 1567062 1557654 1549437 1543431 
3918.535 1540385 1540693 1544486 1551583 1561343 1572836 1584569 1594850 
3922.393 1601999 1604492 1601724 1593771 1581710 1567336 1552764 1540079 
3926.250 1531027 1526608 1526847 1530974 1537426 1544195 1549232 1550828 
3930.108 1548154 1541392 1531724 1521017 1511333 1504354 1501147 1501752 
3933.965 1505618 1511641 1518837 1526377 1533722 1540700 1547246 1553490 
3937.823 1559711 1566393 1574277 1584098 1596400 1610998 1626801 1641765 
3941.680 1653292 1658994 1657126 1647541 1631372 1611111 1589687 1569896 
3945.537 1553888 1542970 1537512 1537225 1541411 1549030 1558684 1568711 
3949.395 1577473 1583517 1586326 1586321 1585021 1584488 1586690 1592435 
3953.252 1601130 1610674 1618289 1621290 1618313 1609872 1598320 1587043 
3957.110 1579641 1578669 1585135 1598248 1615827 1635186 1653572 1668771 
3960.967 1679364 1684578 1684253 1678638 1668607 1655499 1641181 1627750 
3964.824 1617273 1610958 1609350 1611934 1617529 1624692 1632400 1640177 
3968.682 1648169 1656707 1666257 1676686 1687185 1696598 1703408 1706459 
3972.539 1705098 1699389 1689744 1676986 1661899 1645347 1627929 1610521 
3976.397 1594082 1579767 1568842 1562249 1560350 1562907 1568910 1576898 
3980.254 1585340 1592960 1599077 1603704 1607374 1610845 1614996 1620267 
3984.112 1626926 1634719 1643074 1651418 1658951 1664912 1668662 1669757 
3987.969 1668078 1663917 1658020 1651628 1646263 1643325 1643924 1648355 
3991.826 1656045 1665579 1675050 1682413 1685969 1684957 1679521 1670809 
3995.684 1660692 1651469 1645252 1643725 1647534 1656358 1668796 1682429 
3999.541 1694447 1702199 1703662 
##END=
