##TITLE=Tecor_PLA+_White_Filament_r6_ATR-Corrected
##JCAMP-DX=5.01  $$ Nicolet v. 1
##DATATYPE=INFRARED SPECTRUM
##ORIGIN=Curtin University
##OWNER=Nicolet
##LONGDATE=2024/07/19
##TIME=09:00:38
##SPECTROMETER/DATA SYSTEM=Nicolet iS50
##DATA PROCESSING=
Ratio against background
%Transmittance->Absorbance
ATR Correction
Truncated
ElementMultiply or ElementDivide
##COMMENTS=
Number of sample scans: 32
Collection length: 47.27 sec
Sample gain: 1.0
Background collected on: Fri Jul 19 08:58:57 2024 (GMT+08:00);
Number of background scans: 32
Background gain: 1.0
Sample spacing:  1.000
Number of scan points: 16672
Resolution points: 8192
Number of FFT points: 65536
Apodization: N-B strong;
Phase correction: Mertz;
Laser frequency: 15798.3 cm-1
Number of rejected sample scans: 0
Number of rejected background scans: 0
Bench serial number: AUP1200105;
##RESOLUTION=4.000
##XUNITS=1/CM
##YUNITS=ABSORBANCE
##FIRSTX=400.163452
##LASTX=4000.187744
##FIRSTY=0.057991
##MAXX=4000.187744
##MINX=400.163452
##MAXY=1.079925
##MINY=-0.032471
##XFACTOR=1.000000
##YFACTOR=1.000000E-008
##NPOINTS=7468
##DELTAX=0.482125
##ZPD=8192
##XYDATA=(X++(Y..Y))
400.163 5799095 5679401 5566795 5463424 5369084 5283533 5206712 5138964 
404.020 5080496 5030269 4985115 4939268 4885201 4815500 4725169 4613456 
407.877 4484689 4347034 4210462 4083887 3972980 3878966 3799290 3729034 
411.734 3663232 3598458 3533676 3469760 3408493 3351240 3298357 3248985 
415.591 3201724 3155197 3108581 3061441 3013533 2964423 2913436 2860021 
419.448 2804413 2747907 2693034 2642721 2599489 2564411 2536751 2514193 
423.305 2493901 2473547 2452452 2431612 2413202 2399379 2391313 2388712 
427.162 2390104 2393655 2398220 2403744 2411248 2422035 2436733 2454572 
431.019 2473519 2490827 2504242 2512485 2516315 2517267 2516849 2515481 
434.876 2511982 2503775 2487969 2462663 2428169 2387408 2345455 2308234 
438.733 2281017 2266957 2266419 2277019 2294496 2313857 2330719 2342299 
442.590 2347948 2349038 2348395 2349229 2354071 2363694 2376730 2389622 
446.447 2397592 2395868 2381276 2353325 2314704 2270744 2228021 2192587 
450.304 2168487 2156804 2155919 2162314 2172120 2182286 2191418 2199729 
454.161 2208351 2218365 2229977 2242089 2252569 2258803 2258517 2250418 
458.017 2234505 2211958 2184836 2155607 2126804 2100651 2078907 2062460 
461.874 2051298 2044282 2039455 2033962 2026008 2014308 1998956 1981404 
465.731 1963972 1949012 1938116 1931507 1928082 1925893 1922983 1918138 
469.588 1911360 1903675 1896673 1891723 1889386 1889155 1889732 1889533 
473.445 1887349 1882770 1876327 1869215 1862807 1858175 1855662 1854724 
477.302 1853988 1851485 1845092 1833001 1814173 1788776 1758351 1725690 
481.159 1694410 1668173 1649898 1641008 1641210 1648603 1660395 1673698 
485.016 1686343 1697252 1706468 1714697 1722757 1731017 1739109 1745959 
488.873 1750021 1749646 1743481 1730737 1711430 1686518 1657907 1628301 
492.730 1600924 1578918 1564762 1559392 1562540 1572214 1585380 1598830 
496.587 1609981 1617444 1621191 1622254 1622197 1622543 1624344 1627992 
500.444 1633302 1639619 1646067 1651612 1655274 1656257 1654164 1649241 
504.301 1642448 1635265 1629371 1626019 1625602 1627414 1629893 1631077 
508.158 1629337 1623858 1614871 1603405 1590864 1578525 1567257 1557516 
512.015 1549596 1543828 1540710 1540716 1543977 1550003 1557623 1565250 
515.871 1571376 1575034 1576050 1574868 1572097 1567938 1561842 1552598 
519.728 1538849 1519814 1495950 1469178 1442592 1419712 1403562 1395841 
523.585 1396557 1404007 1415289 1426750 1435255 1438276 1434499 1424053 
527.442 1408517 1390632 1373809 1361369 1355747 1357835 1366619 1379368 
531.299 1392255 1401320 1403483 1397292 1383191 1363312 1340879 1319417 
535.156 1302048 1290879 1286763 1289219 1296652 1306751 1316997 1325252 
539.013 1330217 1331662 1330415 1327891 1325587 1324501 1324793 1325829 
542.870 1326538 1325950 1323675 1320120 1316388 1313873 1313784 1316807 
546.727 1322925 1331515 1341565 1351824 1361011 1367872 1371375 1370929 
550.584 1366695 1359783 1352264 1346754 1345715 1350632 1361376 1376007 
554.441 1391288 1403591 1410107 1409545 1402900 1392818 1382830 1376330 
558.298 1375678 1381712 1393766 1410054 1428262 1446145 1461880 1474320 
562.155 1482987 1488032 1490061 1490013 1488942 1487865 1487556 1488529 
566.012 1491029 1495111 1500724 1507687 1515680 1524116 1532116 1538604 
569.869 1542525 1543203 1540639 1535590 1529459 1523961 1520706 1520831 
573.725 1524864 1532726 1543921 1557655 1572940 1588612 1603323 1615668 
577.582 1624471 1629157 1630093 1628693 1627146 1627891 1632890 1643096 
581.439 1658191 1676803 1696993 1716865 1734984 1750574 1763388 1773444 
585.296 1780838 1785631 1788006 1788356 1787376 1785960 1784898 1784594 
589.153 1784871 1785090 1784424 1782282 1778608 1773992 1769515 1766362 
593.010 1765518 1767490 1772343 1779864 1789732 1801684 1815478 1830796 
596.867 1847077 1863472 1878923 1892378 1903027 1910476 1914806 1916480 
600.724 1916252 1915018 1913805 1913701 1915811 1921159 1930376 1943519 
604.581 1959923 1978157 1996401 2012817 2026061 2035622 2042006 2046548 
608.438 2051081 2057511 2067380 2081593 2100261 2122695 2147586 2173216 
612.295 2197710 2219442 2237367 2251309 2262057 2271300 2281248 2294132 
616.152 2311651 2334542 2362423 2393954 2427241 2460324 2491658 2520392 
620.009 2546370 2569972 2591761 2612193 2631404 2649219 2665316 2679473 
623.866 2691833 2702999 2713995 2726069 2740389 2757770 2778493 2802279 
627.723 2828440 2856040 2884120 2911826 2938415 2963278 2985883 3005831 
631.579 3022982 3037573 3050319 3062316 3074810 3088844 3104873 3122606 
635.436 3141057 3158891 3174964 3188793 3200867 3212538 3225649 3241915 
639.293 3262322 3286766 3314039 3342143 3368919 3392611 3412376 3428419 
643.150 3441821 3454125 3466804 3480869 3496598 3513660 3531339 3548998 
647.007 3566417 3583939 3602369 3622646 3645297 3670145 3696099 3721425 
650.864 3744250 3763239 3778154 3790014 3800833 3813015 3828437 3847851 
654.721 3870552 3894579 3917407 3936785 3951459 3961549 3968458 3974419 
658.578 3981715 3992143 4006502 4024557 4045157 4066650 4087276 4105571 
662.435 4120704 4132619 4142134 4150738 4160326 4172780 4189424 4210798 
666.292 4236403 4264896 4294498 4323422 4350357 4374634 4396199 4415334 
670.149 4432352 4447414 4460539 4471810 4481568 4490565 4499867 4510556 
674.006 4523371 4538424 4555195 4572760 4590202 4606993 4623182 4639254 
677.863 4655803 4673102 4690901 4708451 4724779 4739347 4752370 4764960 
681.720 4778864 4795832 4816898 4841911 4869360 4896796 4921522 4941410 
685.577 4955567 4964508 4969930 4974099 4979093 4986292 4996032 5007861 
689.433 5020857 5034214 5047579 5061188 5075721 5091975 5110444 5131139 
693.290 5153507 5176624 5199510 5221378 5241869 5261080 5279439 5297566 
697.147 5316089 5335480 5356008 5377678 5400200 5422984 5445126 5465553 
701.004 5483095 5496747 5505872 5510327 5510546 5507328 5501669 5494537 
704.861 5486620 5478317 5469746 5460869 5451609 5441888 5431578 5420479 
708.718 5408196 5394126 5377548 5357690 5333799 5305293 5271754 5232950 
712.575 5188838 5139613 5085727 5027934 4967172 4904417 4840455 4775586 
716.432 4709531 4641440 4570114 4494330 4413228 4326517 4234586 4138426 
720.289 4039402 3939057 3838921 3740448 3644931 3553573 3467423 3387386 
724.146 3314188 3248384 3190458 3140827 3099933 3068245 3046148 3033911 
728.003 3031590 3039132 3056508 3083897 3121878 3171332 3233299 3308582 
731.860 3397338 3498832 3611390 3732594 3859751 3990288 4122065 4253534 
735.717 4383602 4511436 4636220 4757117 4873300 4984202 5089691 5190164 
739.574 5286523 5379954 5471633 5562503 5653065 5743430 5833345 5922414 
743.431 6010249 6096612 6181542 6265386 6348840 6432923 6518857 6607961 
747.287 6701382 6799897 6903760 7012643 7125658 7241572 7358931 7476262 
751.144 7592055 7704749 7812641 7913752 8005832 8086511 8153399 8204362 
755.001 8237663 8252087 8246944 8222008 8177508 8114107 8032904 7935441 
758.858 7823712 7699994 7566645 7425848 7279384 7128498 6973955 6816206 
762.715 6655679 6493084 6329620 6167001 6007315 5852708 5704980 5565247 
766.572 5433665 5309469 5191157 5076918 4965089 4854601 4745193 4637421 
770.429 4532442 4431570 4335886 4245845 4161230 4081172 4004431 3929726 
774.286 3856051 3782757 3709559 3636368 3563098 3489618 3415754 3341500 
778.143 3267179 3193602 3121952 3053528 2989353 2929719 2874041 2820894 
782.000 2768352 2714583 2658337 2599316 2538193 2476326 2415258 2356209 
785.857 2299771 2245802 2193657 2142555 2091910 2041602 1991951 1943617 
789.714 1897324 1853692 1813098 1775673 1741398 1710170 1681845 1656239 
793.571 1633083 1611984 1592484 1574145 1556582 1539594 1523101 1507098 
797.428 1491537 1476257 1461004 1445520 1429697 1413687 1397960 1383231 
801.285 1370317 1359921 1352470 1347961 1346131 1346427 1348082 1350356 
805.141 1352533 1354081 1354686 1354301 1353226 1352018 1351406 1352057 
808.998 1354351 1358174 1362844 1367295 1370318 1371027 1369084 1364933 
812.855 1359610 1354462 1350631 1348737 1348703 1349838 1351214 1352077 
816.712 1352196 1351984 1352379 1354433 1358920 1366031 1375226 1385379 
820.569 1395125 1403213 1408873 1411930 1412838 1412519 1412075 1412604 
824.426 1414942 1419580 1426554 1435484 1445687 1456318 1466598 1476045 
828.283 1484563 1492546 1500660 1509711 1520305 1532726 1546813 1562054 
832.140 1577836 1593567 1608945 1623947 1638946 1654544 1671553 1690956 
835.997 1713843 1741288 1774152 1812857 1857182 1906229 1958590 2012815 
839.854 2067872 2123586 2180708 2240694 2305045 2374681 2449393 2527713 
843.711 2607274 2685486 2760196 2830175 2895151 2955404 3011144 3062041 
847.568 3107061 3144817 3174235 3195321 3209664 3220517 3232304 3249912 
851.425 3277838 3319618 3377622 3453168 3546858 3658979 3789648 3938897 
855.282 4106483 4291744 4493421 4709699 4938220 5176201 5420587 5668113 
859.139 5915403 6159140 6396249 6624167 6840998 7045660 7237720 7417203 
862.995 7584247 7738816 7880561 8008840 8122848 8221900 8305543 8373707 
866.852 8426578 8464479 8487736 8496524 8490732 8470047 8433965 8381914 
870.709 8313468 8228380 8126829 8009355 7876837 7730332 7570805 7399051 
874.566 7215614 7020900 6815468 6600329 6377129 6148301 5916826 5685995 
878.423 5459005 5238672 5027186 4826066 4636228 4458146 4292052 4138087 
882.280 3996548 3867922 3752935 3652446 3567282 3497950 3444410 3405978 
886.137 3381310 3368626 3365931 3371336 3383208 3400196 3421120 3444898 
889.994 3470415 3496529 3522275 3546906 3570022 3591540 3611485 3629853 
893.851 3646434 3660785 3672400 3680894 3686185 3688599 3688705 3687218 
897.708 3684733 3681707 3678475 3675456 3673238 3672700 3674821 3680423 
901.565 3689915 3703066 3719092 3736867 3755300 3773693 3791868 3810144 
905.422 3829078 3849107 3870323 3892338 3914388 3935596 3955161 3972593 
909.279 3987703 4000577 4011372 4020184 4026938 4031419 4033257 4032091 
913.136 4027620 4019635 4008120 3993178 3975027 3953975 3930408 3904804 
916.993 3877704 3849764 3821694 3794190 3767843 3742984 3719568 3697174 
920.849 3675114 3652606 3629036 3604179 3578279 3551985 3526108 3501398 
924.706 3478359 3457196 3437897 3420415 3404797 3391226 3379851 3370653 
928.563 3363270 3356997 3350950 3344393 3336981 3328958 3321058 3314174 
932.420 3309065 3305993 3304635 3304233 3303887 3302924 3301078 3298559 
936.277 3295901 3293765 3292691 3293088 3295203 3299247 3305423 3313974 
940.134 3325021 3338561 3354395 3372231 3391832 3413270 3436949 3463570 
943.991 3494002 3528942 3568767 3613364 3662229 3714614 3769699 3826842 
947.848 3885590 3945771 4007417 4070752 4136081 4203768 4274091 4347083 
951.705 4422375 4499118 4576009 4651418 4723708 4791384 4853244 4908335 
955.562 4955804 4994673 5023801 5042014 5048383 5042658 5025523 4998667 
959.419 4964534 4925927 4885469 4845374 4807224 4772166 4741032 4714511 
963.276 4693128 4677033 4665824 4658349 4652818 4647052 4638858 4626494 
967.133 4608821 4585301 4555811 4520431 4479237 4432346 4380065 4323058 
970.990 4262543 4200143 4137681 4076812 4018742 3964121 3913083 3865490 
974.847 3821262 3780562 3743828 3711644 3684513 3662710 3646135 3634433 
978.703 3627103 3623700 3623883 3627495 3634414 3644454 3657340 3672717 
982.560 3690289 3709932 3731826 3756490 3784571 3816757 3853508 3894918 
986.417 3940685 3990137 4042384 4096489 4151476 4206610 4261344 4315418 
990.274 4368850 4421899 4475014 4528775 4583695 4640158 4698273 4757824 
994.131 4818341 4879146 4939572 4999089 5057438 5114699 5171270 5227868 
997.988 5285393 5344912 5407497 5474187 5545904 5623283 5706692 5796115 
1001.845 5891256 5991535 6096371 6205263 6318010 6434813 6556265 6683291 
1005.702 6817009 6958562 7108974 7269038 7439303 7620070 7811428 8013384 
1009.559 8225957 8449242 8683573 8929560 9188061 9460158 9746884 10049093 
1013.416 10367199 10700988 11049626 11411807 11785913 12170433 12564135 
1016.791 12966298 13376705 13795498 14222859 14658755 15102492 15552704 
1020.166 16007151 16462922 16916588 17364702 17804172 18232722 18649260 
1023.540 19054120 19448846 19836042 20218816 20600378 20983664 21371190 
1026.916 21765170 22167830 22581658 23009666 23455370 23922584 24415084 
1030.291 24936212 25488436 26073266 26691070 27341086 28021566 28729674 
1033.666 29461664 30212888 30977822 31750280 32523522 33290496 34044000 
1037.041 34776796 35481708 36151768 36780252 37360932 37888144 38357052 
1040.417 38763616 39104776 39378432 39583492 39719952 39788960 39792724 
1043.792 39734412 39617912 39447400 39227112 38961188 38653612 38308472 
1047.167 37930212 37523880 37095208 36650556 36196624 35740084 35286976 
1050.542 34842488 34410464 33993440 33592632 33208308 32840142 32487630 
1053.917 32150408 31828460 31521956 31231276 30956864 30699400 30460110 
1057.293 30241274 30046764 29882312 29755380 29674816 29649908 29689592 
1060.668 29801760 29992854 30267786 30630216 31082734 31627112 32264212 
1064.043 32993814 33814392 34723168 35716216 36788912 37936504 39154524 
1067.418 40438960 41786088 43192060 44652420 46161868 47714300 49303116 
1070.794 50921672 52563756 54223800 55896836 57578284 59263724 60948528 
1074.169 62627680 64295588 65945900 67571304 69163616 70714000 72213392 
1077.544 73652888 75024112 76319000 77529248 78645424 79656544 80550304 
1080.919 81313952 81936152 82408456 82726584 82890240 82902512 82768600 
1084.295 82494696 82087880 81556152 80908984 80157680 79315064 78395016 
1087.670 77411488 76377904 75306824 74209688 73096784 71977112 70857848 
1091.045 69744040 68638320 67541176 66451548 65367784 64288496 63213296 
1094.420 62142692 61078148 60021292 58973636 57936160 56909452 55893540 
1097.796 54888268 53893296 52908264 51932664 50966032 50007980 49058424 
1101.171 48117560 47186004 46264704 45354868 44457964 43575720 42710236 
1104.546 41864036 41040112 40241688 39471928 38733624 38028952 37359520 
1107.921 36726380 36130460 35572864 35055124 34579200 34147348 33761792 
1111.297 33424390 33136290 32897792 32708042 32565122 32466110 32407170 
1114.672 32383910 32391876 32427084 32486672 32569278 32675260 32806454 
1118.047 32965598 33155566 33378652 33635940 33927204 34250952 34604804 
1121.422 34985744 35390300 35814368 36252968 36699752 37146804 37584676 
1124.798 38002676 38389624 38734524 39027468 39260164 39426396 39522208 
1128.173 39545788 39497312 39378552 39192636 38943392 38635016 38271584 
1131.548 37856636 37392752 36881492 36323408 35718380 35066132 34366856 
1134.923 33621724 32833198 32005066 31142146 30249804 29333526 28398528 
1138.299 27449716 26491656 25528896 24566090 23608228 22660486 21728270 
1141.674 20816806 19931010 19075280 18253330 17468070 16721858 16016398 
1145.049 15353061 14732817 14156389 13624111 13135819 12690701 12287290 
1148.424 11923448 11596570 11303926 11042927 10811348 10607550 10430354 
1151.800 10278890 10152360 10049807 9969924 9911133 9871576 9849474 9843269 
1155.657 9851888 9874801 9912039 9964038 10031536 10115344 10216288 10335134 
1159.514 10472646 10629706 10807406 11007175 11230805 11480473 11758749 
1162.890 12068483 12412862 12795369 13219841 13690539 14212215 14790024 
1166.265 15429628 16136958 16918194 17779612 18727550 19768346 20908352 
1169.640 22153940 23511438 24986918 26585918 28312862 30170492 32159036 
1173.015 34275456 36512624 38858704 41296400 43802528 46347804 48896824 
1176.391 51408512 53837256 56134576 58251672 60142184 61765492 63089584 
1179.766 64093496 64768904 65120440 65164804 64928512 64444768 63750012 
1183.141 62880640 61870812 60751320 59549504 58289832 56994528 55683820 
1186.516 54375772 53085768 51825876 50604708 49427624 48297508 47215776 
1189.892 46183084 45199944 44266792 43383752 42550404 41765716 41028140 
1193.267 40336076 39688208 39083840 38522716 38004764 37529536 37095780 
1196.642 36701272 36342944 36017280 35720896 35450872 35205080 34982096 
1200.017 34780972 34601020 34441512 34301476 34179680 34074592 33984196 
1203.393 33906040 33837040 33773644 33711940 33647860 33577588 33497834 
1206.768 33406014 33300164 33178786 33040554 32884088 32707808 32510034 
1210.143 32289150 32043874 31773504 31478106 31158480 30816046 30452668 
1213.518 30070422 29671350 29257480 28830662 28392700 27945316 27490208 
1216.894 27028978 26563126 26094044 25623060 25151568 24681086 24213374 
1220.269 23750394 23294112 22846336 22408394 21981032 21564314 21157744 
1223.644 20760474 20371562 19990286 19616236 19249468 18890422 18539796 
1227.019 18198436 17867122 17546534 17237090 16939086 16652682 16378008 
1230.395 16115166 15864287 15625410 15398414 15182929 14978343 14783844 
1233.770 14598590 14421864 14253139 14092200 13938957 13793337 13655098 
1237.145 13523757 13398671 13279043 13164191 13053603 12947001 12844303 
1240.520 12745474 12650530 12559393 12471981 12388314 12308559 12233076 
1243.896 12162384 12097050 12037580 11984313 11937358 11896572 11861621 
1247.271 11832063 11807327 11786844 11770154 11756937 11747165 11741104 
1250.646 11739273 11742330 11750877 11765299 11785697 11811939 11843768 
1254.021 11881017 11923645 11971790 12025590 12084911 12149315 12217834 
1257.396 12289281 12362423 12436260 12510253 12584279 12658378 12732562 
1260.772 12806512 12879530 12950650 13018841 13083309 13143526 13199189 
1264.147 13250014 13295400 13334338 13365394 13387020 13397755 13396616 
1267.522 13383164 13357419 13319665 13270208 13209105 13136262 13051435 
1270.897 12954445 12845284 12724093 12591213 12446963 12291655 12125573 
1274.273 11948996 11762375 11566346 11361763 11149636 10931043 10707079 
1277.648 10478760 10247099 10013095 9777778 9542184 9307290 9074015 8843174 
1281.505 8615489 8391734 8172699 7959337 7752743 7554170 7364934 7186428 
1285.363 7020080 6867291 6729378 6607515 6502639 6415341 6345793 6293817 
1289.220 6258872 6240248 6237081 6248498 6273521 6311049 6359720 6417878 
1293.078 6483645 6554972 6629891 6706643 6783829 6860376 6935432 7008187 
1296.935 7077811 7143409 7204005 7258768 7307087 7348742 7383876 7413006 
1300.792 7436911 7456495 7472700 7486410 7498383 7509090 7518789 7527373 
1304.650 7534481 7539558 7541977 7541292 7537282 7530093 7520154 7508076 
1308.507 7494522 7479975 7464774 7449015 7432651 7415624 7397905 7379608 
1312.365 7361001 7342514 7324614 7307855 7292690 7279498 7268496 7259729 
1316.222 7253085 7248363 7245330 7243819 7243710 7244956 7247462 7251048 
1320.080 7255409 7260140 7264857 7269402 7273913 7278904 7285150 7293505 
1323.937 7304599 7318705 7335680 7355119 7376612 7400048 7425777 7454587 
1327.794 7487544 7525607 7569410 7619052 7674145 7734100 7798367 7866688 
1331.652 7939147 8016079 8097741 8184151 8274851 8369066 8465891 8564626 
1335.509 8665049 8767447 8872569 8981272 9094241 9211718 9333500 9459114 
1339.367 9588062 9720129 9855587 9995034 10139340 10289274 10445290 10607503 
1343.224 10775739 10949831 11129753 11315830 11508630 11708727 11916383 
1346.599 12131377 12352824 12579358 12809388 13041426 13274314 13507286 
1349.975 13739835 13971482 14201519 14428763 14651629 14868101 15075998 
1353.350 15273058 15457149 15626389 15779249 15914603 16031818 16130756 
1356.725 16211638 16274890 16320986 16350324 16363245 16360228 16342230 
1360.100 16310862 16268571 16218488 16164012 16108297 16053613 16001052 
1363.476 15950298 15899913 15847765 15791450 15728688 15657482 15576021 
1366.851 15482426 15374590 15250145 15106760 14942637 14757314 14552306 
1370.226 14331560 14101742 13871920 13652994 13457014 13296172 13182007 
1373.601 13124463 13131061 13206320 13351120 13562638 13834368 14156561 
1376.977 14516948 14901541 15295602 15684515 16054374 16392711 16688716 
1380.352 16933434 17119808 17242692 17298816 17286872 17207232 17061930 
1383.727 16854248 16588350 16269037 15901662 15492103 15046853 14572990 
1387.102 14077902 13568793 13052152 12533212 12015705 11502001 10993356 
1390.478 10490434 9993764 9504126 9022817 8551721 8093360 7650685 7227006 
1394.335 6825507 6449000 6099553 5778223 5485081 5219275 4979316 4763363 
1398.192 4569427 4395611 4240126 4101267 3977456 3867232 3769216 3682104 
1402.050 3604623 3535580 3473720 3417813 3366708 3319351 3274982 3233124 
1405.907 3193641 3156627 3122338 3091032 3062937 3038128 3016548 2998040 
1409.765 2982311 2969037 2957816 2948293 2940089 2932989 2926901 2921869 
1413.622 2918112 2915869 2915388 2916805 2920086 2925031 2931333 2938595 
1417.479 2946526 2954946 2963841 2973363 2983747 2995239 3008040 3022276 
1421.337 3038031 3055449 3074804 3096491 3121101 3149145 3181075 3217029 
1425.194 3256933 3300515 3347492 3397788 3451627 3509516 3572181 3640345 
1429.052 3714577 3795183 3882223 3975680 4075507 4181846 4295048 4415761 
1432.909 4544986 4684128 4835153 5000665 5183767 5387965 5616804 5873511 
1436.767 6160719 6480468 6834326 7223669 7649898 8114385 8618124 9161299 
1440.624 9742565 10358831 11005021 11674447 12359150 13050498 13739640 
1443.999 14417966 15077429 15710801 16311897 16875654 17398116 17876356 
1447.375 18308358 18692930 19029648 19318778 19561220 19758258 19911388 
1450.750 20022134 20091980 20122318 20114494 20069668 19988548 19871196 
1454.125 19716812 19523882 19290488 19015128 18697166 18337520 17938476 
1457.500 17503422 17036170 16540533 16020091 15478380 14919187 14346693 
1460.875 13765371 13179675 12593575 12010333 11432595 10862676 10303066 
1464.251 9756640 9226665 8716452 8228902 7766077 7329164 6918581 6534195 
1468.108 6175716 5842754 5534767 5250963 4990203 4750958 4531451 4329772 
1471.966 4144040 3972556 3813794 3666492 3529685 3402810 3285694 3178499 
1475.823 3081493 2994795 2918171 2850806 2791496 2738772 2691284 2648009 
1479.680 2608350 2572060 2538966 2508822 2481107 2455182 2430383 2406235 
1483.538 2382535 2359333 2336813 2315087 2294140 2273808 2253954 2234521 
1487.395 2215678 2197823 2181355 2166593 2153600 2142142 2131863 2122384 
1491.253 2113473 2105088 2097367 2090423 2084262 2078639 2073135 2067280 
1495.110 2060640 2053075 2044748 2036094 2027723 2020201 2013940 2009089 
1498.968 2005443 2002563 1999824 1996576 1992239 1986458 1979150 1970561 
1502.825 1961140 1951545 1942464 1934467 1927995 1923189 1920018 1918160 
1506.682 1917212 1916756 1916387 1915852 1915034 1913875 1912400 1910570 
1510.540 1908315 1905450 1901851 1897378 1892073 1886195 1880140 1874365 
1514.397 1869345 1865391 1862606 1860838 1859781 1859044 1858166 1856796 
1518.255 1854623 1851517 1847451 1842616 1837291 1831880 1826792 1822292 
1522.112 1818468 1815108 1811860 1808304 1804154 1799348 1794070 1788707 
1525.969 1783632 1779062 1775067 1771490 1768155 1764963 1761988 1759510 
1529.827 1757738 1756840 1756690 1756915 1757030 1756531 1755175 1752973 
1533.684 1750227 1747365 1744793 1742798 1741491 1740800 1740562 1740586 
1537.542 1740593 1740234 1739084 1736709 1732678 1726817 1719193 1710182 
1541.399 1700407 1690590 1681424 1673474 1667129 1662590 1659925 1658948 
1545.257 1659298 1660336 1661205 1661072 1659262 1655527 1650133 1643812 
1549.114 1637544 1632146 1628124 1625372 1623429 1621601 1619361 1616513 
1552.971 1613337 1610253 1607720 1605883 1604592 1603354 1601776 1599632 
1556.829 1597091 1594622 1592743 1591782 1591640 1591799 1591530 1590212 
1560.686 1587643 1584162 1580589 1577909 1576944 1578072 1581115 1585342 
1564.544 1589789 1593443 1595564 1595795 1594246 1591357 1587811 1584344 
1568.401 1581608 1580131 1580169 1581735 1584596 1588327 1592379 1596253 
1572.259 1599558 1602119 1604024 1605540 1607058 1608981 1611665 1615248 
1576.116 1619699 1624842 1630353 1635862 1641032 1645556 1649237 1651976 
1579.973 1653869 1655098 1655984 1656891 1658121 1659814 1661920 1664141 
1583.831 1666062 1667317 1667716 1667368 1666756 1666498 1667257 1669397 
1587.688 1672890 1677209 1681607 1685252 1687561 1688510 1688530 1688480 
1591.546 1689348 1691931 1696682 1703541 1712033 1721490 1731229 1740736 
1595.403 1749795 1758378 1766645 1774767 1782834 1790841 1798544 1805714 
1599.260 1812072 1817450 1821857 1825487 1828695 1831893 1835399 1839326 
1603.118 1843605 1847994 1852218 1856133 1859874 1863771 1868370 1874081 
1606.975 1881202 1889651 1899130 1909184 1919454 1929693 1939857 1949983 
1610.833 1960013 1969764 1978971 1987356 1994888 2001870 2008911 2016738 
1614.690 2025936 2036655 2048534 2060829 2072593 2083023 2091766 2098868 
1618.548 2104671 2109715 2114379 2118859 2123158 2127221 2130983 2134364 
1622.405 2137337 2139779 2141540 2142414 2142357 2141478 2140187 2138996 
1626.262 2138402 2138631 2139604 2140966 2142317 2143386 2144265 2145328 
1630.120 2146998 2149527 2152764 2156153 2158892 2160238 2159894 2158044 
1633.977 2155376 2152836 2151283 2151274 2152998 2156327 2160965 2166556 
1637.835 2172733 2179065 2184980 2189801 2192855 2193718 2192367 2189282 
1641.692 2185298 2181289 2177923 2175312 2173149 2170793 2167605 2163251 
1645.550 2157844 2151894 2146166 2141313 2137777 2135658 2134808 2134859 
1649.407 2135460 2136281 2137092 2137733 2138239 2138711 2139527 2141043 
1653.264 2143654 2147576 2152731 2158765 2165221 2171715 2178184 2184917 
1657.122 2192498 2201562 2212500 2225306 2239441 2254013 2268045 2280707 
1660.979 2291520 2300516 2308074 2314835 2321537 2328870 2337385 2347364 
1664.837 2358843 2371487 2384693 2397681 2409673 2420193 2429195 2437025 
1668.694 2444386 2451997 2460413 2469860 2480207 2491265 2502858 2515061 
1672.552 2528116 2542276 2557607 2573829 2590350 2606579 2622060 2636787 
1676.409 2651272 2666193 2682163 2699408 2717637 2736122 2754090 2770985 
1680.266 2786782 2801920 2817242 2833538 2851387 2871093 2892684 2916028 
1684.124 2941088 2967797 2996055 3025549 3055688 3085657 3114762 3142529 
1687.981 3169106 3195175 3221933 3250588 3282126 3317017 3355221 3396265 
1691.839 3439585 3484760 3531621 3580241 3630745 3683229 3737586 3793597 
1695.696 3851060 3909866 3970269 4032743 4097931 4166557 4239211 4316213 
1699.553 4397711 4483620 4573847 4668380 4767300 4870890 4979549 5093641 
1703.411 5213589 5339607 5471882 5610550 5755723 5907579 6066330 6232188 
1707.268 6405262 6585546 6772897 6967204 7168411 7376759 7592766 7817182 
1711.126 8050801 8294225 8547760 8811235 9084255 9366225 9656680 9955290 
1714.983 10262010 10576854 10899779 11230473 11568272 11912293 12261553 
1718.358 12615320 12973383 13336186 13704932 14081474 14468046 14866947 
1721.734 15280347 15710026 16157494 16624145 17111578 17622028 18158628 
1725.109 18725274 19326662 19967810 20653712 21389106 22178366 23025468 
1728.484 23934316 24908828 25953158 27071860 28270184 29554236 30931186 
1731.859 32409314 33997516 35704668 37538400 39504236 41604920 43840860 
1735.235 46210984 48713960 51349060 54115952 57013232 60036308 63175040 
1738.610 66412316 69724024 73080552 76448968 79795104 83084736 86283752 
1741.985 89358192 92274184 94999680 97505992 99769648 101773000 103503624 
1745.360 104953096 106116680 106993736 107589504 107916200 107992520 
1748.253 107840992 107483760 106938728 106217752 105327496 104272424 
1751.146 103058424 101694904 100194608 98571448 96837680 95002056 93070032 
1754.522 91045704 88934752 86746528 84494728 82196312 79869088 77529416 
1757.897 75190640 72863040 70554504 68271968 66022684 63814664 61656524 
1761.272 59556980 57523920 55563784 53681032 51878004 50155012 48510648 
1764.647 46942304 45446756 44020772 42661492 41366640 40134456 38963132 
1768.023 37850364 36792864 35786192 34824912 33903156 33015200 32156212 
1771.398 31322342 30511022 29720432 28949046 28195140 27456436 26730046 
1774.773 26012638 25300878 24591752 23882782 23172256 22459044 21742642 
1778.148 21023036 20300726 19576838 18853226 18132406 17417484 16711795 
1781.524 16018549 15340570 14680165 14039055 13418499 12819430 12242411 
1784.899 11687693 11155176 10644740 10156413 9690765 9249026 8832911 8444183 
1788.756 8083795 7751310 7444608 7160167 6894048 6642756 6404182 6178026 
1792.614 5965450 5768284 5588000 5424935 5278077 5145258 5023756 4910982 
1796.471 4804941 4704301 4608332 4516649 4428980 4345188 4265190 4189121 
1800.329 4117167 4049584 3986409 3927476 3872346 3820493 3771464 3724997 
1804.186 3680982 3639324 3599652 3561281 3523160 3484080 3442884 3398880 
1808.043 3351964 3302734 3252334 3202397 3154687 3110745 3071576 3037341 
1811.901 3007195 2979333 2951435 2921250 2887321 2849498 2809063 2768504 
1815.758 2730697 2698287 2672859 2654854 2643613 2637980 2636660 2638456 
1819.616 2642248 2646552 2649455 2648603 2641890 2627916 2606449 2578622 
1823.473 2546286 2511427 2475497 2439223 2402853 2366817 2332200 2300826 
1827.331 2274612 2254761 2240706 2229973 2218606 2202460 2178711 2146967 
1831.188 2109369 2069863 2032729 2001147 1976272 1957295 1942030 1928123 
1835.045 1913806 1898239 1881352 1863251 1843762 1822294 1797924 1770048 
1838.903 1738599 1704376 1668799 1633854 1601620 1574284 1553762 1541623 
1842.760 1538529 1543868 1555339 1569086 1580430 1584914 1579715 1564471 
1846.618 1541387 1514406 1487926 1465500 1448724 1437320 1429516 1423219 
1850.475 1416894 1410023 1403136 1397258 1393357 1391895 1392520 1394182 
1854.333 1395120 1393301 1386477 1373026 1352353 1325733 1296432 1269402 
1858.190 1250089 1242784 1248986 1266608 1290373 1313348 1329133 1334017 
1862.047 1327764 1313430 1295572 1278305 1263867 1252010 1240888 1228451 
1865.905 1213988 1198598 1184916 1175793 1173127 1177022 1185751 1196722 
1869.762 1207336 1215748 1220856 1221832 1217532 1206267 1186234 1156544 
1873.620 1118246 1074975 1032473 997581 976358 972545 986500 1015355 1053435 
1877.959 1093690 1128866 1152754 1160907 1151488 1125332 1086116 1039790 
1881.817 993674 954761 928382 916787 918985 931046 947941 964811 978631 
1886.156 988596 995822 1002260 1009607 1018371 1027875 1036656 1043299 
1890.014 1047193 1048830 1049459 1050635 1053334 1057706 1062791 1066957 
1893.871 1068335 1065358 1056961 1042913 1023403 999054 970625 939100 905836 
1898.211 872734 842412 818187 803209 799980 809130 828930 855217 882252 
1902.550 904403 917867 922073 919927 916714 918012 927501 945216 967545 
1906.890 988567 1002351 1005394 997821 982956 965647 949721 936287 923489 
1911.229 907523 885240 856134 823363 792930 771650 764119 771053 788790 
1915.569 810988 830830 843803 848834 848284 846148 846033 849239 854463 
1919.909 858431 857535 849507 834107 813275 789821 766182 743739 722282 
1924.248 700826 678658 656079 635019 618460 609316 609276 617908 632363 
1928.588 647949 659545 663196 657271 642854 623514 603860 588055 578112 
1932.927 573497 571099 566668 556021 536983 509643 476647 441862 409292 
1937.267 381934 361387 347766 340726 339520 343767 352999 366414 382539 
1941.607 399684 416174 431465 446489 463808 486659 517947 558123 605154 
1945.946 653625 696152 724452 731692 713954 672014 611199 541316 474399 
1950.286 422632 395342 396628 424310 470192 522109 566905 594138 598046 
1954.625 578376 539539 488168 431109 373429 318695 269338 227913 197414 
1958.965 180706 179105 190778 210904 233064 251714 265279 277019 294027 
1963.305 323712 369980 430809 497794 558946 603293 623985 621250 600645 
1967.644 569666 534036 495386 451442 399598 340132 279198 228151 200435 
1971.984 205593 246065 313610 393405 467756 524330 559713 582534 609143 
1976.323 658529 743344 864892 1010245 1156545 1277883 1354897 1379266 
1980.181 1355844 1298693 1226104 1155158 1096827 1054418 1024137 997727 
1984.038 966328 924064 871076 812498 757442 716318 696613 702020 730701 
1988.378 776016 827836 874266 903573 906104 876494 815412 730488 635040 
1992.718 545505 476795 437479 426808 434463 444235 440833 415604 371972 
1997.057 324661 295063 303703 362017 467205 601696 738018 846653 903082 
2001.397 894482 820030 689750 519073 325407 124479 -69991 -245763 -391215 
2005.736 -495649 -550285 -551884 -503009 -413351 -296679 -169081 -45306 
2009.594 62656 147800 207497 244857 266933 284558 308264 345713 397201 
2013.933 454766 502120 519967 491676 409935 279301 115993 -57201 -217040 
2018.273 -345718 -432747 -474222 -469270 -417563 -318712 -174514 7040 208873 
2022.613 406218 569653 673476 701334 651034 532347 363445 163859 -49617 
2026.952 -264954 -471971 -659884 -814006 -917082 -953451 -914849 -804189 
2030.810 -636720 -435742 -227932 -36574 120887 234561 299485 314868 282055 
2035.149 207514 103292 -11278 -112649 -177012 -187732 -139033 -39428 91938 
2039.489 228827 345865 423318 452245 434481 381808 312055 245358 200275 
2043.828 190142 221355 292281 394568 516087 644106 769927 889587 1004132 
2048.168 1116163 1225567 1327058 1409468 1459651 1467115 1427945 1347194 
2052.025 1236899 1113246 991606 883329 793079 719908 659361 607110 561164 
2056.365 522724 494294 477900 472823 476170 483969 494057 507404 528608 
2060.705 563477 616177 686111 767441 849317 920082 969957 994466 994933 
2065.044 977685 951039 923364 900920 887456 884646 892444 909300 932649 
2069.384 958157 981008 996543 1002380 999220 991714 986669 990940 1008611 
2073.723 1039263 1077534 1115351 1144427 1159502 1159917 1149629 1135468 
2077.581 1124600 1121829 1128804 1143701 1162752 1181446 1196017 1203526 
2081.438 1202092 1190313 1167494 1133851 1091144 1042968 994524 951290 
2085.296 917905 896569 886480 883878 883461 879607 867858 845514 811712 
2089.635 766748 711825 648797 580400 510811 445729 392082 356869 345399 
2093.975 359959 398682 456251 524649 595955 663395 723094 773657 815610 
2098.314 850134 878472 901522 920294 935858 949653 962886 975838 987636 
2102.654 996413 1000072 997743 990318 980875 973422 971220 975053 982331 
2106.994 987770 985484 971428 945948 913934 883837 864680 862802 879231 
2111.333 909327 943991 972799 987143 982648 959678 922338 876516 827838 
2115.673 780154 735583 694927 658524 626428 598793 575087 553927 532903 
2120.012 509918 483517 454336 424982 399104 379895 368512 363143 359728 
2124.352 352836 338168 313696 280387 240797 197448 150535 97032 31270 -53001 
2129.174 -159835 -288156 -431308 -577405 -712589 -823653 -902138 -944938 
2133.031 -954770 -937402 -899439 -845397 -777305 -695222 -600057 -495641 
2136.889 -390665 -297812 -232158 -207041 -231295 -305966 -425025 -575571 
2140.746 -741965 -908052 -1061074 -1191879 -1296254 -1373212 -1424595 
2144.121 -1453448 -1464142 -1461449 -1450832 -1436931 -1424333 -1415545 
2147.497 -1412555 -1417232 -1432861 -1465675 -1524124 -1617189 -1751299 
2150.872 -1925951 -2132522 -2353846 -2568428 -2756188 -2904158 -3010548 
2154.247 -3083902 -3138056 -3184431 -3224851 -3247131 -3226735 -3134766 
2157.622 -2948659 -2665828 -2307340 -1915889 -1539919 -1219255 -972484 
2160.998 -797768 -680794 -605336 -558868 -536308 -535922 -556035 -591169 
2164.855 -632611 -670356 -697960 -713710 -721492 -726804 -732845 -737285 
2168.712 -732815 -710055 -664311 -597908 -523882 -461406 -430114 -442330 
2172.570 -497866 -583136 -675296 -749865 -789163 -787502 -753310 -704415 
2176.427 -661796 -641456 -650361 -684496 -732521 -779305 -811240 -818494 
2180.285 -797689 -750960 -686611 -615475 -550745 -503164 -479097 -477144 
2184.142 -487811 -494947 -480211 -428205 -332888 -199717 -45885 104207 
2188.000 225140 298081 314961 280560 209223 120598 32968 -40715 -95572 
2192.339 -133319 -160428 -183552 -207594 -233367 -258441 -277298 -284365 
2196.197 -274858 -247091 -202124 -144482 -80740 -17728 38682 84953 120129 
2200.536 145782 164477 178645 190365 200666 210796 222484 238694 262575 
2204.876 296283 338627 384383 424122 446595 441116 401465 327045 224310 
2209.215 104346 -18930 -132290 -224655 -287744 -316382 -307641 -260805 
2213.073 -178414 -66415 65132 203330 334326 446714 533424 593365 630107 
2217.412 649806 657923 657814 649245 630837 601107 561554 516526 473163 
2221.752 438342 417198 410979 417926 434519 457852 487179 524199 571255 
2226.092 629956 698311 770880 839208 894791 931581 947808 946864 935684 
2230.431 922487 914127 914048 922234 935456 949187 959114 962154 957090 
2234.771 944272 925213 902188 877610 854134 833869 818145 807015 799388 
2239.110 793113 786446 779059 772993 772815 784713 814263 864244 932098 
2243.450 1010031 1085631 1144670 1175038 1169757 1129162 1060663 976565 
2247.307 891279 817311 763515 733639 727197 740660 769482 808963 855030 
2251.647 903902 952291 996963 1035766 1067784 1094321 1118254 1143443 
2255.504 1172899 1207408 1244594 1279628 1306154 1318821 1314720 1294697 
2259.362 1262764 1225119 1188261 1157624 1136207 1124979 1123256 1129584 
2263.219 1142326 1159955 1180586 1201776 1220023 1231562 1232934 1222308 
2267.077 1200181 1169929 1137226 1109005 1091672 1090072 1106069 1138778 
2270.934 1184676 1238785 1295523 1349799 1397627 1436396 1464904 1483571 
2274.792 1493955 1499200 1503468 1511552 1527966 1555939 1596041 1646190 
2278.649 1701424 1755244 1801400 1835837 1857873 1870618 1879665 1891506 
2282.506 1910931 1939809 1976123 2014961 2049873 2075039 2086581 2083456 
2286.364 2067009 2040380 2007359 1971598 1936282 1904026 1876838 1856176 
2290.221 1842745 1836252 1835185 1837071 1838928 1837960 1832241 1821187 
2294.079 1805338 1786312 1765950 1746024 1727813 1711989 1698808 1688248 
2297.936 1680085 1674095 1669954 1667485 1666579 1667308 1669844 1674419 
2301.793 1680904 1688929 1697632 1706091 1713584 1720055 1725938 1732243 
2305.651 1739757 1748696 1758255 1766744 1772288 1773421 1769720 1762366 
2309.508 1753521 1746037 1742421 1744522 1753030 1767762 1787767 1811748 
2313.366 1838070 1864870 1890142 1911998 1929050 1941122 1949155 1955360 
2317.223 1962382 1972665 1987715 2008189 2034259 2066353 2105740 2154151 
2321.081 2212737 2280333 2351940 2418361 2467469 2486876 2467254 2405170 
2324.938 2304152 2174212 2029572 1885598 1755906 1649853 1571454 1519580 
2328.795 1489321 1474068 1467293 1463955 1460873 1456630 1450881 1443860 
2332.653 1436092 1428173 1420869 1414858 1410773 1408774 1408516 1409285 
2336.510 1410290 1410927 1411124 1411486 1412869 1416028 1421335 1428279 
2340.368 1435651 1441839 1445204 1444660 1439809 1431226 1420080 1408018 
2344.225 1396693 1387388 1380821 1377039 1375432 1374966 1374460 1372850 
2348.083 1369418 1363895 1356540 1347865 1338509 1329189 1320482 1312837 
2351.940 1306642 1302039 1299037 1297448 1296829 1296699 1296420 1295658 
2355.797 1294137 1291777 1288569 1284270 1278537 1270911 1260988 1248743 
2359.655 1234858 1220525 1207106 1195844 1187159 1180482 1174412 1167160 
2363.512 1157269 1144230 1128724 1112430 1097628 1086388 1079946 1078510 
2367.370 1081282 1086901 1093911 1101178 1107988 1114150 1119632 1124672 
2371.227 1129317 1133741 1138057 1142326 1146621 1150925 1155112 1159047 
2375.084 1162728 1166315 1170214 1174904 1180782 1187850 1195647 1203407 
2378.942 1210118 1215014 1217662 1218100 1216703 1213987 1210520 1206860 
2382.799 1203742 1202220 1203638 1209404 1220505 1236945 1257443 1279394 
2386.657 1299389 1314108 1321112 1319688 1310825 1296950 1281132 1266239 
2390.514 1254357 1246456 1242585 1242186 1244522 1249018 1255169 1262735 
2394.372 1271638 1281718 1292936 1305124 1318195 1331650 1344573 1355620 
2398.229 1363154 1365586 1362002 1352570 1338785 1323095 1308440 1297342 
2402.086 1291269 1290207 1292658 1296360 1298903 1298615 1294898 1288428 
2405.944 1280834 1274045 1269779 1269041 1271952 1277812 1285396 1293387 
2409.801 1300582 1306284 1310201 1312396 1313136 1312727 1311362 1309163 
2413.659 1306234 1302883 1299571 1296947 1295715 1296273 1298542 1301939 
2417.516 1305305 1307407 1307294 1304601 1299658 1293562 1287528 1282701 
2421.374 1279814 1279005 1279885 1281919 1284556 1287413 1290108 1292373 
2425.231 1293721 1293652 1291875 1288445 1284077 1279952 1277445 1277821 
2429.088 1281513 1288351 1297564 1308208 1319641 1331903 1345248 1360208 
2432.946 1376557 1393298 1408544 1420022 1425880 1425262 1418624 1407428 
2436.803 1393439 1378071 1361816 1344542 1325833 1306162 1287076 1271480 
2440.661 1262786 1263871 1275771 1297251 1324660 1353038 1377424 1394087 
2444.518 1401297 1399439 1390446 1377059 1362009 1347686 1336102 1328924 
2448.375 1327658 1333416 1346433 1365771 1389108 1413068 1433924 1448566 
2452.233 1455341 1454573 1448135 1438894 1429485 1421482 1414862 1408214 
2456.090 1399413 1386543 1368871 1347203 1324155 1303114 1287635 1280391 
2459.948 1282209 1292015 1307000 1323372 1337490 1346674 1349962 1348193 
2463.805 1343398 1338270 1335059 1334882 1337608 1341908 1345803 1347465 
2467.663 1345650 1339984 1330780 1318799 1304777 1289284 1272554 1254851 
2471.520 1236539 1218265 1201162 1186550 1175795 1170032 1169747 1174799 
2475.377 1184390 1197103 1211358 1225654 1239027 1251302 1263185 1276153 
2479.235 1291821 1311598 1335845 1363578 1392502 1419388 1440923 1454458 
2483.092 1458843 1454514 1443502 1428675 1413193 1399584 1389485 1383337 
2486.950 1380601 1380192 1380761 1381195 1380728 1379224 1376726 1373524 
2490.807 1369845 1365471 1360067 1353148 1344478 1334535 1324723 1317174 
2494.665 1314266 1317893 1328551 1344976 1364215 1382384 1395776 1402091 
2498.522 1401238 1395310 1387837 1382651 1382507 1388262 1398696 1411100 
2502.379 1422350 1430051 1433142 1432325 1429331 1426461 1425415 1427010 
2506.237 1430776 1435361 1439029 1440341 1438698 1434587 1429598 1425896 
2510.094 1425656 1430287 1439860 1452844 1466391 1476991 1481596 1478529 
2513.952 1468201 1453133 1437310 1424920 1419281 1421598 1430749 1443725 
2517.809 1456622 1465915 1469486 1467170 1460640 1452601 1445999 1443042 
2521.667 1444605 1450326 1458675 1467739 1475620 1480887 1482797 1481368 
2525.524 1477113 1470991 1464027 1457289 1451721 1447915 1446163 1446243 
2529.381 1447666 1449581 1451114 1451535 1450563 1448459 1445759 1443390 
2533.239 1441964 1441575 1441569 1440609 1437054 1429625 1417784 1402314 
2537.096 1385163 1369064 1356834 1350442 1350545 1356321 1365678 1375977 
2540.954 1384728 1390380 1392452 1391709 1389712 1388542 1390205 1396419 
2544.811 1408237 1425963 1448767 1474909 1501486 1525025 1541918 1549273 
2548.668 1545670 1531729 1510214 1485561 1462984 1447426 1442304 1448924 
2552.526 1465993 1490186 1516710 1540512 1557229 1564185 1560754 1548527 
2556.383 1530698 1511475 1494986 1484480 1481771 1486905 1498408 1513726 
2560.241 1529903 1544325 1555131 1561586 1564076 1563940 1563037 1563262 
2564.098 1566115 1572226 1581107 1591285 1600614 1606832 1608368 1604786 
2567.956 1597035 1587374 1578555 1572989 1572135 1575877 1582876 1590907 
2571.813 1598025 1603054 1606095 1608369 1611723 1617745 1627205 1639657 
2575.670 1653708 1667323 1678572 1686054 1689152 1687934 1682950 1674851 
2579.528 1664269 1651826 1638097 1623939 1610281 1598346 1589194 1583832 
2583.385 1582842 1586576 1595201 1608694 1626835 1649071 1674303 1700733 
2587.243 1725960 1747284 1762303 1769593 1769016 1762007 1751064 1739142 
2591.100 1728856 1721714 1717831 1716206 1715243 1713529 1710261 1705630 
2594.958 1700483 1696007 1693144 1692210 1693161 1695589 1699207 1703954 
2598.815 1709978 1717290 1725541 1733586 1739875 1742718 1741028 1734863 
2602.672 1725491 1715180 1706547 1701599 1701301 1705357 1712491 1721206 
2606.530 1730241 1739200 1748339 1758289 1769525 1781978 1794920 1807358 
2610.387 1818458 1827918 1836222 1844283 1853078 1863073 1873900 1884380 
2614.245 1892997 1898526 1900480 1899437 1896932 1894769 1894545 1896958 
2618.102 1901559 1906885 1911154 1912618 1910392 1904828 1897231 1889641 
2621.959 1884009 1881812 1883386 1888062 1894340 1900514 1905161 1907723 
2625.817 1908595 1908936 1910260 1913948 1920701 1930511 1942585 1955533 
2629.674 1968053 1978937 1987521 1993669 1997592 1999866 2000970 2001380 
2633.532 2001454 2001314 2001014 2000625 2000271 2000211 2000852 2002676 
2637.389 2006119 2011494 2018845 2027908 2038176 2048984 2059769 2070114 
2641.247 2079768 2088695 2096788 2103778 2109220 2112620 2113433 2111490 
2645.104 2107063 2100716 2093420 2085899 2078769 2072243 2066100 2060151 
2648.961 2054272 2048614 2043776 2040376 2039040 2039965 2042939 2047147 
2652.819 2051447 2054603 2055540 2053559 2048551 2040846 2031222 2020548 
2656.676 2009745 1999298 1989232 1979048 1967767 1954396 1938019 1918395 
2660.534 1895945 1871743 1847153 1823553 1801920 1782552 1765194 1749285 
2664.391 1734305 1719930 1706385 1694172 1683784 1675483 1669169 1664333 
2668.249 1660257 1656350 1652272 1648183 1644407 1641527 1640019 1640109 
2672.106 1641679 1644401 1647635 1650789 1653190 1654369 1654011 1652250 
2675.963 1649445 1646360 1643904 1642806 1643462 1645621 1648446 1650814 
2679.821 1651615 1650201 1646615 1641595 1636241 1631858 1629168 1628496 
2683.678 1629501 1631525 1633811 1635774 1637069 1637471 1636863 1635017 
2687.536 1631680 1626762 1620307 1612865 1605168 1598100 1592333 1588171 
2691.393 1585455 1583723 1582578 1581803 1581643 1582569 1585096 1589307 
2695.250 1594770 1600352 1604713 1606558 1605251 1600953 1594733 1588093 
2699.108 1582576 1579205 1578154 1578926 1580378 1581449 1581377 1580017 
2702.965 1577903 1575951 1575061 1575723 1577975 1581182 1584462 1586925 
2706.823 1587944 1587291 1585227 1582217 1578761 1575257 1571862 1568692 
2710.680 1565895 1563661 1562319 1562278 1563685 1566395 1569826 1573158 
2714.538 1575470 1576242 1575391 1573455 1571354 1570136 1570479 1572546 
2718.395 1575837 1579330 1581866 1582530 1580929 1577335 1572544 1567549 
2722.252 1563312 1560463 1559212 1559470 1560917 1563261 1566392 1570247 
2726.110 1574936 1580479 1586875 1593787 1600820 1607371 1612852 1616630 
2729.967 1618208 1617329 1613818 1607993 1600359 1591842 1583525 1576591 
2733.825 1571885 1569876 1570502 1573111 1576843 1580740 1584115 1586756 
2737.682 1588791 1590708 1592956 1595775 1599110 1602474 1605351 1607217 
2741.540 1607748 1606963 1605155 1602793 1600348 1598252 1596828 1596334 
2745.397 1596864 1598380 1600661 1603258 1605541 1606856 1606797 1605380 
2749.254 1603142 1601031 1600111 1601122 1604165 1608558 1612943 1615740 
2753.112 1615644 1612080 1605333 1596624 1587394 1579180 1573007 1569303 
2756.969 1567838 1568131 1569470 1571198 1572908 1574137 1574551 1573881 
2760.827 1572126 1569527 1566686 1564456 1563682 1564910 1568179 1572907 
2764.684 1578063 1582543 1585447 1586429 1585665 1583814 1581572 1579488 
2768.542 1577764 1576236 1574567 1572452 1569768 1566581 1563245 1560158 
2772.399 1557842 1556699 1557304 1560145 1565668 1574024 1584975 1597607 
2776.256 1610533 1621974 1630379 1634664 1634677 1631293 1625977 1620490 
2780.114 1616328 1614246 1614264 1615712 1617711 1619505 1620850 1622047 
2783.971 1623759 1626770 1631531 1638025 1645738 1653771 1661125 1667049 
2787.829 1671111 1673508 1674650 1675229 1675988 1677402 1679680 1682670 
2791.686 1685934 1688974 1691123 1692044 1691510 1689680 1687061 1684414 
2795.543 1682506 1682111 1683838 1687953 1694315 1702598 1712134 1722239 
2799.401 1732207 1741520 1749792 1756928 1762994 1768157 1772710 1776794 
2803.258 1780548 1784032 1787223 1790124 1792922 1795805 1799171 1803293 
2807.116 1808369 1814345 1820842 1827417 1833512 1838864 1843461 1847776 
2810.973 1852471 1858274 1865687 1874826 1885302 1896389 1907348 1917449 
2814.831 1926446 1934462 1941911 1949335 1957084 1965339 1973948 1982542 
2818.688 1990863 1998752 2006444 2014262 2022843 2032654 2043884 2056470 
2822.545 2069965 2083665 2096801 2108733 2119014 2127679 2135082 2141915 
2826.403 2149085 2157477 2167732 2180137 2194502 2210172 2226135 2241371 
2830.260 2254941 2266407 2275937 2284363 2292906 2303079 2316106 2332554 
2834.118 2352293 2374301 2397038 2419001 2439135 2457266 2474350 2491903 
2837.975 2511930 2535884 2564354 2596693 2631281 2666081 2699191 2729511 
2841.833 2756940 2782352 2807198 2832993 2860914 2891811 2926114 2964097 
2845.690 3005920 3051578 3100499 3151264 3201573 3248200 3287725 3317114 
2849.547 3334453 3339450 3333156 3317662 3295323 3268285 3238102 3205762 
2853.405 3171954 3137263 3102308 3067554 3033283 2999166 2964609 2928899 
2857.262 2891810 2854052 2817203 2783597 2755588 2734723 2721304 2714109 
2861.120 2710826 2708851 2705935 2701040 2694342 2687185 2681500 2679284 
2864.977 2682043 2690615 2704962 2724471 2747990 2774105 2801536 2829224 
2868.834 2856676 2884171 2912683 2943684 2978775 3019151 3065256 3116564 
2872.692 3171709 3229034 3286717 3343459 3398531 3451658 3502854 3552049 
2876.549 3598994 3643193 3684026 3720867 3753239 3780725 3803051 3819772 
2880.407 3830595 3835241 3833797 3826789 3815132 3800194 3783233 3765423 
2884.264 3747382 3729397 3711449 3693338 3675029 3656783 3639136 3622765 
2888.122 3608478 3597016 3588830 3584237 3583062 3584911 3589136 3594969 
2891.979 3601751 3609157 3617295 3626670 3638031 3651984 3668599 3687414 
2895.836 3707384 3727305 3746295 3764089 3781216 3798837 3818277 3840479 
2899.694 3865536 3892795 3920881 3948369 3974134 3997720 4019271 4039482 
2903.551 4059078 4078563 4098167 4117928 4137897 4158335 4179707 4202583 
2907.409 4227512 4254785 4284477 4316526 4350979 4388088 4428264 4472053 
2911.266 4519688 4571078 4625638 4682551 4741042 4800630 4861248 4923090 
2915.124 4986347 5050722 5115299 5178551 5238642 5293961 5343342 5386563 
2918.981 5423967 5456336 5484397 5508664 5529355 5546546 5560338 5571249 
2922.838 5579940 5587237 5593777 5599854 5605333 5609914 5613453 5616202 
2926.696 5618972 5622979 5629603 5639911 5654523 5673485 5696353 5722632 
2930.553 5752045 5784664 5821043 5862021 5908693 5962067 6023069 6092573 
2934.411 6171228 6259741 6358564 6468116 6588389 6719284 6860335 7010719 
2938.268 7169212 7334108 7503050 7673113 7840970 8003094 8156176 8297425 
2942.125 8424751 8536796 8632635 8711609 8772926 8815788 8839415 8843268 
2945.983 8827407 8792542 8739838 8670796 8586896 8489391 8379423 8258166 
2949.840 8127228 7988737 7845558 7700773 7557487 7418118 7284078 7155608 
2953.698 7031754 6910998 6791515 6672004 6551926 6431882 6313559 6199391 
2957.555 6092151 5994414 5907824 5832952 5768918 5713886 5665247 5620310 
2961.413 5576624 5532285 5486050 5437208 5385552 5331240 5275041 5218316 
2965.270 5163010 5111503 5065949 5028062 4998236 4975797 4959047 4945891 
2969.127 4934530 4924005 4914460 4906689 4901913 4900950 4904015 4910653 
2972.985 4919973 4931045 4943383 4956718 4971124 4986785 5003723 5022033 
2976.842 5042094 5064955 5092362 5126620 5170193 5224863 5291215 5368468 
2980.700 5454628 5547182 5643875 5743458 5846107 5953254 6067175 6190460 
2984.557 6325267 6473025 6634308 6808574 6994571 7190127 7392641 7599080 
2988.415 7806195 8010954 8210589 8402997 8586429 8759534 8921043 9069736 
2992.272 9204087 9322592 9423827 9506603 9570029 9613570 9636949 9640252 
2996.129 9623826 9588721 9536488 9469422 9390208 9301630 9205897 9104282 
2999.987 8996918 8882970 8761325 8630957 8491796 8344745 8191721 8034949 
3003.844 7876444 7717398 7558033 7397739 7235624 7071243 6904865 6737736 
3007.702 6571753 6408936 6250778 6097849 5949853 5805888 5665059 5526876 
3011.559 5391614 5260109 5133395 5012097 4895994 4784183 4675084 4567179 
3015.417 4459598 4352454 4246830 4144560 4047400 3956743 3872960 3795597 
3019.274 3723371 3654741 3588028 3522018 3455928 3389521 3323271 3258101 
3023.131 3195438 3136990 3084203 3038014 2998296 2963818 2932402 2901508 
3026.989 2868888 2833294 2794697 2754284 2713994 2675926 2641637 2612058 
3030.846 2587277 2566877 2550131 2536084 2523745 2511987 2499560 2485441 
3034.704 2468828 2449560 2428228 2405879 2383681 2362370 2342040 2321993 
3038.561 2301287 2279205 2255839 2232265 2210194 2191458 2177310 2167880 
3042.418 2162250 2158678 2155361 2150906 2144798 2137356 2129348 2121666 
3046.276 2114874 2109136 2104372 2100365 2097055 2094421 2092669 2091922 
3050.133 2092078 2092953 2094054 2094786 2094387 2092098 2087064 2078813 
3053.991 2067291 2053309 2038431 2024937 2015131 2010678 2012106 2018327 
3057.848 2027101 2035723 2041797 2044054 2042605 2038696 2034054 2030059 
3061.706 2027320 2025630 2024229 2022517 2020373 2018330 2017359 2018264 
3065.563 2021345 2026068 2031317 2035743 2038385 2038953 2037890 2036259 
3069.420 2035350 2036259 2039677 2045752 2054102 2064016 2074276 2083391 
3073.278 2089902 2092423 2089968 2082432 2070403 2055225 2038564 2022013 
3077.135 2006598 1992733 1980272 1968771 1957857 1947500 1938083 1930185 
3080.993 1924439 1921312 1920898 1923001 1927115 1932568 1938520 1944048 
3084.850 1948376 1950941 1951651 1950877 1949500 1948611 1949155 1951504 
3088.708 1955401 1959881 1963709 1965813 1965517 1962851 1958251 1952278 
3092.565 1945358 1937613 1928849 1918875 1907839 1896217 1884863 1874599 
3096.422 1865997 1859234 1854102 1850312 1847644 1846255 1846584 1848985 
3100.280 1853501 1859727 1866662 1873298 1878780 1883033 1886527 1890178 
3104.137 1894831 1900821 1907710 1914384 1919503 1921795 1920736 1916470 
3107.995 1909864 1902034 1894118 1886785 1880422 1875071 1870742 1867458 
3111.852 1865384 1864816 1865952 1868657 1872576 1876925 1880606 1882603 
3115.709 1881995 1878475 1872337 1864742 1857323 1851965 1850439 1853585 
3119.567 1861280 1872279 1884414 1895306 1902815 1905752 1903948 1898324 
3123.424 1890516 1882506 1875933 1871981 1871220 1873609 1878708 1885867 
3127.282 1894258 1903021 1911313 1918346 1923584 1926636 1927312 1925599 
3131.139 1921687 1915890 1908744 1900881 1893121 1886465 1881744 1879590 
3134.997 1880216 1883318 1888179 1893865 1899415 1904165 1907716 1909960 
3138.854 1910854 1910441 1908624 1905330 1900558 1894644 1888159 1881925 
3142.711 1876778 1873402 1872306 1873628 1877327 1883362 1891386 1901156 
3146.569 1912125 1923553 1934276 1943014 1948560 1950001 1946934 1939653 
3150.426 1928940 1916022 1902149 1888537 1876374 1866569 1860034 1857342 
3154.284 1858908 1864797 1874323 1886258 1898856 1910006 1917765 1920753 
3158.141 1918605 1912032 1902836 1893436 1886337 1883567 1886010 1893402 
3161.999 1904175 1916142 1926986 1934902 1939066 1939851 1938562 1936942 
3165.856 1936685 1938948 1943925 1950969 1958654 1965309 1969197 1969252 
3169.713 1965024 1957140 1947049 1936850 1928832 1924937 1926242 1932686 
3173.571 1942886 1954732 1965879 1974426 1979593 1981676 1981838 1981637 
3177.428 1982258 1984289 1987454 1991046 1994234 1996610 1998217 1999354 
3181.286 2000202 2000494 1999300 1995430 1987762 1976003 1960915 1944443 
3185.143 1929305 1918231 1913288 1915375 1924038 1937566 1953616 1969673 
3189.000 1983475 1993509 1998968 1999924 1997137 1991818 1985339 1979019 
3192.858 1973695 1969819 1967143 1965261 1963614 1962075 1960857 1960658 
3196.715 1962222 1966214 1972775 1981456 1991290 2001042 2009485 2015596 
3200.573 2018708 2018539 2015183 2009018 2000881 1991978 1983816 1977977 
3204.430 1975808 1977991 1984375 1994036 2005371 2016765 2026912 2035197 
3208.288 2041619 2046618 2050670 2053957 2056381 2057661 2057495 2056066 
3212.145 2053879 2051790 2050585 2050612 2051557 2052503 2052324 2050113 
3216.002 2045544 2039319 2032725 2027362 2024821 2025990 2031022 2039292 
3219.860 2049838 2061492 2073280 2084413 2094227 2102137 2107394 2109292 
3223.717 2107244 2101183 2091628 2079848 2067620 2056887 2049253 2045741 
3227.575 2046416 2050541 2056654 2063030 2067964 2070196 2069016 2064610 
3231.432 2057878 2050460 2044278 2041105 2042203 2047835 2057002 2067956 
3235.290 2078305 2086046 2090123 2090728 2089178 2087453 2087405 2090068 
3239.147 2095368 2102380 2109830 2116826 2123180 2129547 2136832 2145571 
3243.004 2155414 2165043 2172448 2175806 2174197 2168045 2158975 2149303 
3246.862 2141070 2135609 2133228 2133293 2134899 2137260 2139906 2142574 
3250.719 2144849 2145823 2144194 2138561 2128135 2113286 2095512 2077452 
3254.577 2061916 2051279 2046800 2048658 2056109 2068042 2083331 2100958 
3258.434 2119734 2138199 2154204 2165446 2169890 2166547 2155721 2139362 
3262.292 2120115 2100864 2084014 2070880 2062099 2057882 2058504 2064363 
3266.149 2075671 2091968 2111569 2131584 2148441 2159006 2161447 2156189 
3270.006 2145453 2132910 2121927 2114736 2111615 2111222 2111247 2109687 
3273.864 2105484 2099034 2091800 2085556 2081568 2080200 2080649 2081605 
3277.721 2081603 2079683 2075569 2069756 2063181 2057133 2052606 2050448 
3281.579 2051047 2054526 2060510 2068206 2076557 2084491 2090892 2095186 
3285.436 2097129 2097061 2095589 2093455 2091352 2089824 2089279 2090061 
3289.293 2092402 2096492 2102286 2109399 2117100 2124395 2130164 2133488 
3293.151 2133768 2130979 2125530 2118319 2110374 2102938 2097018 2093512 
3297.008 2092854 2095055 2099542 2105361 2111447 2116970 2121507 2125402 
3300.866 2129475 2134660 2141434 2149399 2157011 2161959 2161707 2154410 
3304.723 2139654 2118738 2094618 2071150 2052059 2040110 2036295 2039893 
3308.581 2048596 2059549 2070217 2078907 2085331 2090287 2095223 2101473 
3312.438 2109653 2119305 2128883 2136436 2140046 2138540 2131761 2120676 
3316.295 2106847 2092200 2078187 2065910 2055805 2048185 2043363 2041763 
3320.153 2043957 2050357 2060745 2074184 2088868 2102664 2113537 2120224 
3324.010 2122454 2121253 2118453 2116267 2116652 2120817 2128877 2139836 
3327.868 2151729 2162170 2168742 2169817 2164678 2154195 2140315 2125896 
3331.725 2113737 2105943 2103201 2104693 2108348 2111724 2112769 2110631 
3335.583 2105890 2100374 2096247 2095529 2099231 2107333 2118839 2132369 
3339.440 2146420 2159758 2171304 2180101 2185147 2185552 2180764 2171174 
3343.297 2158141 2144240 2132607 2126201 2127115 2135858 2151141 2170347 
3347.155 2190113 2207296 2219361 2225065 2224270 2217841 2207128 2193718 
3351.012 2179146 2164728 2151491 2140122 2130950 2124052 2119137 2115777 
3354.870 2113420 2111636 2110079 2108543 2107063 2105763 2104824 2104551 
3358.727 2105090 2106521 2108687 2111170 2113450 2115041 2115615 2115241 
3362.584 2114357 2113779 2114274 2116431 2120354 2125612 2131212 2135998 
3366.442 2138783 2138965 2136384 2131720 2126159 2121220 2118420 2118927 
3370.299 2123105 2130661 2140237 2150008 2157981 2162598 2162919 2159269 
3374.157 2152692 2144876 2137455 2131451 2127079 2123728 2120228 2115456 
3378.014 2108549 2099356 2088323 2076401 2064613 2054072 2045755 2040366 
3381.872 2038419 2040096 2045058 2052510 2061023 2069151 2075508 2079535 
3385.729 2081538 2082722 2084703 2088858 2095793 2105064 2115101 2123923 
3389.586 2129683 2131330 2128876 2123217 2115779 2107871 2100315 2093236 
3393.444 2086235 2078879 2070917 2062656 2054895 2048855 2045575 2045819 
3397.301 2049716 2056662 2065471 2074717 2083064 2089586 2094110 2097195 
3401.159 2099824 2103323 2108572 2116007 2125056 2134693 2143566 2150633 
3405.016 2155402 2158146 2159619 2160612 2161468 2161888 2160877 2157275 
3408.874 2150189 2139571 2126280 2111956 2098442 2087265 2079122 2073729 
3412.731 2070101 2066965 2063220 2058487 2053145 2048238 2045028 2044755 
3416.588 2047958 2054618 2063840 2074122 2083753 2091204 2095554 2096770 
3420.446 2095732 2093981 2093161 2094617 2098742 2105111 2112482 2119419 
3424.303 2124827 2128430 2130663 2132598 2135190 2138923 2143394 2147578 
3428.161 2150069 2149899 2146848 2141651 2135530 2130123 2126410 2124817 
3432.018 2124896 2125749 2126463 2126323 2125167 2123065 2120270 2116884 
3435.875 2112806 2107940 2102358 2096462 2091061 2087069 2085097 2085227 
3439.733 2086618 2087939 2087596 2084582 2078804 2071463 2064640 2060627 
3443.590 2061367 2067359 2077589 2089615 2100396 2107140 2108199 2103722 
3447.448 2095421 2086227 2079139 2076475 2079234 2086849 2097701 2109763 
3451.305 2121191 2131139 2139523 2146912 2153978 2161047 2167711 2173123 
3455.163 2176272 2176576 2174277 2170618 2167493 2166958 2170585 2179003 
3459.020 2191539 2206593 2222071 2236088 2247456 2256256 2263359 2270358 
3462.877 2278654 2289013 2301124 2313695 2324695 2332259 2335080 2332990 
3466.735 2327086 2319255 2311713 2306434 2304631 2306679 2312077 2320045 
3470.592 2329558 2339716 2349843 2359306 2367580 2374221 2378900 2381604 
3474.450 2382671 2382604 2382046 2381300 2380413 2378988 2376556 2372988 
3478.307 2368470 2363998 2360813 2360262 2363283 2370158 2380551 2393795 
3482.165 2409259 2426582 2445787 2467100 2490523 2515681 2541565 2566781 
3486.022 2589704 2609041 2623824 2633780 2639071 2640436 2639037 2636625 
3489.879 2635248 2637518 2645732 2661425 2684788 2714345 2747027 2778912 
3493.737 2806201 2826390 2838624 2844124 2845343 2845227 2846222 2849554 
3497.594 2855060 2861654 2867847 2872484 2875196 2876419 2877217 2878997 
3501.452 2882845 2889391 2898517 2909480 2920908 2931239 2938768 2942191 
3505.309 2940737 2934391 2923781 2910303 2895484 2881077 2868444 2858746 
3509.167 2852493 2849781 2850031 2852259 2855033 2856717 2855912 2851787 
3513.024 2844339 2834626 2824186 2814847 2807737 2803211 2800392 2797893 
3516.881 2794359 2789188 2782900 2777013 2773334 2773096 2776030 2780258 
3520.739 2782515 2778976 2766608 2743901 2711449 2671879 2628984 2586968 
3524.596 2549417 2518715 2495751 2480087 2470155 2464092 2459951 2456296 
3528.454 2452332 2448236 2444542 2442036 2441253 2442050 2443643 2444690 
3532.311 2443704 2439804 2432775 2423413 2413168 2403790 2396706 2392976 
3536.168 2392980 2396687 2403858 2413842 2425888 2438726 2450542 2459241 
3540.026 2462782 2459804 2449935 2434091 2414001 2391906 2369604 2348505 
3543.883 2329237 2312209 2297692 2286261 2278500 2274839 2274934 2277533 
3547.741 2280801 2282866 2282495 2279691 2275692 2272312 2271200 2273037 
3551.598 2277298 2282445 2286625 2288572 2287903 2285285 2281436 2276964 
3555.456 2271332 2263366 2251585 2235198 2214911 2192983 2172846 2157990 
3559.313 2150845 2152188 2160781 2173947 2188541 2201836 2212023 2218645 
3563.170 2222083 2223425 2223846 2224470 2226173 2229494 2234482 2240743 
3567.028 2247281 2252837 2256045 2256229 2253511 2249076 2244783 2242530 
3570.885 2243505 2247506 2253044 2257527 2258361 2253680 2243052 2227917 
3574.743 2210881 2195296 2184082 2179005 2180200 2186107 2193831 2199946 
3578.600 2201108 2195091 2181410 2161449 2138297 2116382 2099996 2092448 
3582.458 2094943 2106223 2122681 2139350 2151317 2154846 2148560 2133660 
3586.315 2113253 2091615 2072600 2058785 2050979 2048303 2048759 2050360 
3590.172 2051479 2051646 2051150 2050919 2051797 2054255 2058005 2062334 
3594.030 2066123 2068331 2068294 2065747 2060990 2054734 2047741 2040794 
3597.887 2034607 2029698 2026261 2024286 2023421 2023185 2022863 2021962 
3601.745 2020226 2017825 2015314 2013419 2012866 2014043 2016973 2021454 
3605.602 2027194 2034364 2043328 2054801 2069306 2086723 2105795 2124437 
3609.459 2139825 2149520 2151869 2146905 2136141 2122149 2107536 2094570 
3613.317 2084258 2076699 2071479 2068200 2066958 2068326 2072876 2080741 
3617.174 2090855 2101386 2109867 2114243 2113601 2108717 2101656 2095237 
3621.032 2091869 2092658 2096962 2102861 2107703 2109322 2106779 2100780 
3624.889 2093416 2087596 2086060 2090684 2101921 2118924 2139490 2161161 
3628.747 2181561 2199054 2213018 2223753 2232235 2239731 2246972 2254485 
3632.604 2262183 2269846 2277329 2284936 2293437 2303762 2316595 2331854 
3636.461 2348634 2365237 2379632 2390201 2396160 2397971 2396918 2394652 
3640.319 2392655 2391772 2391978 2392785 2393616 2394239 2394948 2396736 
3644.176 2400719 2408073 2419612 2435583 2455742 2479027 2503843 2528006 
3648.034 2548827 2563905 2571432 2571108 2564221 2553842 2543706 2537441 
3651.891 2537063 2542611 2551925 2561487 2567620 2567725 2560975 2548772 
3655.749 2533860 2519559 2508851 2503483 2504071 2510102 2520371 2533477 
3659.606 2547671 2561167 2572068 2578632 2579502 2574268 2563458 2548701 
3663.463 2532066 2515577 2500590 2487610 2476268 2465899 2455762 2445586 
3667.321 2435346 2425253 2415231 2405108 2394379 2382969 2371248 2360376 
3671.178 2351860 2347194 2346934 2350687 2356862 2363372 2368291 2370542 
3675.036 2370111 2367938 2365022 2361958 2358200 2352376 2342730 2328048 
3678.893 2308184 2284507 2259579 2236119 2216342 2201125 2190134 2181949 
3682.750 2175147 2169049 2163853 2160870 2161622 2167203 2177524 2191094 
3686.608 2205385 2217267 2224148 2224488 2218026 2205812 2189605 2171376 
3690.465 2152599 2134328 2116834 2100032 2083723 2067758 2052287 2037829 
3694.323 2025290 2015960 2011350 2012704 2020370 2033732 2050621 2067641 
3698.180 2080980 2087198 2084416 2072755 2054598 2033730 2014388 1999985 
3702.038 1992347 1991588 1996431 2005189 2016174 2028455 2041250 2053787 
3705.895 2064787 2072395 2074667 2070532 2060237 2045797 2030259 2017169 
3709.752 2009018 2006566 2008757 2013450 2018343 2022055 2024386 2026243 
3713.610 2028512 2031417 2033987 2034425 2030949 2023022 2011714 1999930 
3717.467 1991099 1988127 1991952 2001292 2012956 2023162 2028817 2029055 
3721.325 2025173 2020478 2019004 2024274 2038177 2060531 2089119 2120120 
3725.182 2148871 2170828 2182332 2181313 2167904 2144467 2115596 2086748 
3729.040 2063516 2050167 2048555 2057920 2075176 2096069 2116132 2132242 
3732.897 2142768 2147745 2148098 2145304 2140365 2133995 2126370 2117702 
3736.754 2108342 2098868 2090082 2082912 2078149 2076510 2078509 2084463 
3740.612 2093997 2106433 2120143 2132977 2142712 2147537 2146658 2140663 
3744.469 2131297 2120999 2112070 2106018 2103522 2104158 2107271 2112247 
3748.327 2118797 2126908 2136433 2146841 2157038 2165652 2171233 2172885 
3752.184 2170518 2164762 2156535 2146957 2136609 2125881 2114811 2103624 
3756.042 2092814 2083288 2076193 2072588 2073245 2078354 2087614 2100170 
3759.899 2114813 2130192 2144655 2156837 2165690 2170994 2173357 2174331 
3763.756 2175759 2179311 2185443 2193372 2200810 2204974 2203258 2194470 
3767.614 2179140 2159620 2139010 2120535 2106447 2097733 2094016 2094271 
3771.471 2097361 2102338 2108646 2115854 2123318 2130113 2135047 2137297 
3775.329 2136366 2132836 2127747 2122403 2118022 2115198 2113883 2113684 
3779.186 2113954 2114312 2114506 2114471 2113979 2112700 2110025 2105559 
3783.043 2099048 2090860 2081680 2072574 2064457 2058192 2054098 2052454 
3786.901 2053210 2056483 2062082 2069590 2078319 2087166 2094896 2100556 
3790.758 2103621 2104322 2103393 2101752 2100059 2098709 2097678 2096875 
3794.616 2096326 2096440 2097674 2100527 2104615 2108909 2111611 2110898 
3798.473 2105557 2095715 2082927 2070072 2060390 2056520 2059676 2069426 
3802.331 2083760 2100063 2115696 2128692 2138065 2143636 2145733 2144984 
3806.188 2141870 2137030 2131156 2125189 2120180 2116985 2116026 2116959 
3810.045 2118646 2119374 2117353 2111354 2101132 2087940 2074235 2063252 
3813.903 2058254 2061765 2074644 2095887 2122631 2150757 2175974 2194817 
3817.760 2205246 2207102 2201739 2191490 2178828 2165933 2154165 2144228 
3821.618 2136328 2130672 2127297 2126437 2127975 2131298 2135122 2137611 
3825.475 2136905 2131577 2121238 2106648 2089410 2071823 2055659 2042111 
3829.333 2031362 2022845 2015765 2009595 2004516 2001595 2002207 2007754 
3833.190 2018817 2034795 2053865 2073097 2089401 2100101 2103544 2099869 
3837.047 2090658 2078870 2067982 2061121 2060337 2066211 2077536 2091801 
3840.905 2105891 2116841 2122366 2121678 2115304 2104944 2092931 2081483 
3844.762 2072225 2065881 2062270 2060593 2059832 2059342 2058787 2058374 
3848.620 2058451 2059548 2061885 2065540 2070513 2076766 2084378 2093400 
3852.477 2103654 2114646 2125138 2133707 2138863 2139739 2136358 2129974 
3856.334 2122477 2116168 2112667 2112853 2116211 2121486 2126957 2131198 
3860.192 2133239 2132936 2130546 2126562 2121164 2114457 2106581 2098017 
3864.049 2089788 2083450 2080430 2081636 2086668 2093790 2100291 2103174 
3867.907 2100192 2090629 2075563 2057678 2040504 2027403 2020542 2020716 
3871.764 2027148 2038165 2051732 2066277 2080697 2094757 2108628 2122646 
3875.622 2136941 2151228 2164687 2176238 2184460 2188220 2186761 2180068 
3879.479 2168855 2154671 2139313 2124865 2112744 2103942 2098343 2095126 
3883.336 2093054 2090917 2087945 2084125 2080240 2077891 2078670 2083922 
3887.194 2094090 2108487 2125224 2141744 2155256 2163668 2165986 2162703 
3891.051 2155646 2147294 2139947 2135236 2133449 2133844 2135062 2136019 
3894.909 2136179 2136038 2136708 2139260 2144232 2151232 2158915 2165683 
3898.766 2170256 2172225 2172167 2171152 2170295 2169869 2169313 2167224 
3902.624 2162214 2153640 2141948 2128799 2116343 2106478 2099978 2096306 
3906.481 2093997 2091215 2086768 2080708 2074122 2068884 2066635 2068188 
3910.338 2073191 2080516 2088631 2096512 2103870 2111111 2118920 2127453 
3914.196 2136146 2143501 2147614 2146972 2141087 2130944 2118591 2106945 
3918.053 2098478 2094885 2096392 2102132 2110175 2118615 2125583 2129884 
3921.911 2130790 2128236 2122418 2113979 2103670 2092516 2081531 2071558 
3925.768 2063110 2056333 2051095 2047119 2044486 2043697 2045621 2051247 
3929.625 2061105 2074907 2091139 2107534 2121416 2130540 2133704 2131010 
3933.483 2123882 2114390 2104777 2096786 2091420 2089010 2089425 2092466 
3937.340 2097860 2105434 2114714 2124843 2134499 2142360 2147117 2148371 
3941.198 2146478 2142813 2139161 2137227 2138017 2141560 2146943 2152697 
3945.055 2157447 2160411 2161589 2161919 2162541 2164580 2168355 2173349 
3948.913 2178173 2181155 2180799 2176518 2168896 2159536 2150770 2144735 
3952.770 2142716 2144780 2149592 2154961 2158554 2158804 2155192 2148699 
3956.627 2141077 2134461 2130487 2129750 2131842 2135581 2139600 2142717 
3960.485 2144253 2144023 2142025 2138325 2132989 2126363 2119150 2112827 
3964.342 2109321 2110588 2117654 2130349 2146708 2163656 2177563 2185669 
3968.200 2186600 2180967 2170711 2158429 2146425 2136003 2127431 2120469 
3972.057 2115078 2111990 2112473 2118140 2129834 2146651 2165900 2183396 
3975.915 2194587 2196041 2186472 2167668 2143616 2119697 2100804 2090249 
3979.772 2088607 2094173 2103411 2112705 2119184 2122125 2122636 2123361 
3983.629 2127426 2137238 2153577 2175509 2200351 2224708 2245247 2259476 
3987.487 2266402 2266462 2261086 2252482 2242766 2233944 2227464 2224292 
3991.344 2224801 2228768 2235146 2242412 2248606 2251827 2250852 2245653 
3995.202 2237396 2228414 2221320 2218423 2220823 2228362 2239419 2251835 
3999.059 2263408 2272663 2278885 2282141 
##END=
