##TITLE=Tecor_PLA+_White_Filament_r5_ATR-Corrected
##JCAMP-DX=5.01  $$ Nicolet v. 1
##DATATYPE=INFRARED SPECTRUM
##ORIGIN=Curtin University
##OWNER=Nicolet
##LONGDATE=2024/07/19
##TIME=08:56:10
##SPECTROMETER/DATA SYSTEM=Nicolet iS50
##DATA PROCESSING=
Ratio against background
%Transmittance->Absorbance
ATR Correction
Truncated
ElementMultiply or ElementDivide
##COMMENTS=
Number of sample scans: 32
Collection length: 47.27 sec
Sample gain: 1.0
Background collected on: Fri Jul 19 08:53:21 2024 (GMT+08:00);
Number of background scans: 32
Background gain: 1.0
Sample spacing:  1.000
Number of scan points: 16672
Resolution points: 8192
Number of FFT points: 65536
Apodization: N-B strong;
Phase correction: Mertz;
Laser frequency: 15798.3 cm-1
Number of rejected sample scans: 0
Number of rejected background scans: 0
Bench serial number: AUP1200105;
##RESOLUTION=4.000
##XUNITS=1/CM
##YUNITS=ABSORBANCE
##FIRSTX=400.163452
##LASTX=4000.187744
##FIRSTY=0.061409
##MAXX=4000.187744
##MINX=400.163452
##MAXY=1.094177
##MINY=-0.025592
##XFACTOR=1.000000
##YFACTOR=1.000000E-008
##NPOINTS=7468
##DELTAX=0.482125
##ZPD=8192
##XYDATA=(X++(Y..Y))
400.163 6140877 6119076 6077436 6008088 5910098 5791120 5663838 5541190 
404.020 5432086 5338944 5257906 5181576 5102662 5017109 4925652 4833159 
407.877 4746211 4670121 4606522 4552630 4502331 4448760 4387103 4316459 
411.734 4240026 4163457 4092243 4029487 3974723 3924453 3874031 3819956 
415.591 3761625 3701770 3645223 3596867 3559413 3532145 3511041 3490055 
419.448 3463209 3426545 3379221 3323544 3263902 3205267 3151838 3106203 
423.305 3069239 3040387 3018213 3000977 2986902 2974422 2962208 2949230 
427.162 2934700 2918059 2898793 2876631 2851542 2824152 2796119 2770300 
431.019 2750581 2741163 2745412 2764473 2797055 2839037 2884601 2927764 
434.876 2963912 2990662 3007872 3016739 3018503 3013394 3000351 2977714 
438.733 2944522 2901913 2853760 2806283 2766572 2740562 2731286 2738024 
442.590 2756636 2780940 2804415 2821842 2830114 2828428 2817896 2800892 
446.447 2780592 2760543 2744301 2734903 2734211 2742177 2756487 2772889 
450.304 2786225 2792064 2788147 2775261 2756971 2738277 2723820 2716186 
454.161 2715094 2717757 2720129 2718564 2711064 2697715 2680147 2660410 
458.017 2639900 2618789 2596230 2571240 2543539 2514083 2484869 2458098 
461.874 2435179 2416054 2399126 2381712 2362103 2339600 2315356 2292023 
465.731 2272861 2260472 2255884 2258108 2264464 2271272 2274887 2272511 
469.588 2262672 2245353 2221797 2194230 2165420 2138263 2115345 2098524 
473.445 2088597 2085209 2086978 2091967 2098144 2103840 2107952 2109733 
477.302 2108520 2103480 2093510 2077627 2055488 2027923 1997074 1966091 
481.159 1938219 1915833 1899616 1888394 1879653 1870606 1859376 1845812 
485.016 1831539 1819373 1812147 1811587 1817576 1828188 1840286 1850623 
488.873 1856753 1857671 1853716 1846235 1836802 1826660 1816464 1806274 
492.730 1795903 1785216 1774369 1763666 1753959 1745894 1739954 1736354 
496.587 1735117 1736116 1739113 1743814 1749797 1756495 1763290 1769544 
500.444 1774763 1778652 1781148 1782315 1782225 1780831 1777907 1773124 
504.301 1766249 1757305 1746760 1735591 1725094 1716659 1711444 1710038 
508.158 1712339 1717613 1724680 1732314 1739486 1745547 1750181 1753151 
512.015 1754061 1752206 1746645 1736638 1722129 1704249 1685437 1669061 
515.871 1658576 1656403 1662927 1676088 1691654 1704284 1708996 1702580 
519.728 1684484 1656828 1623632 1589583 1558665 1533328 1514269 1500844 
523.585 1491872 1486393 1484054 1484913 1489499 1497793 1509068 1521898 
527.442 1534441 1544930 1552095 1555329 1554673 1550584 1543710 1534756 
531.299 1524431 1513518 1502863 1493320 1485580 1479989 1476485 1474638 
535.156 1473856 1473612 1473637 1473901 1474475 1475339 1476254 1476735 
539.013 1476278 1474608 1471875 1468715 1466006 1464585 1464840 1466516 
542.870 1468723 1470231 1469841 1466813 1461141 1453563 1445449 1438473 
546.727 1434190 1433764 1437651 1445582 1456587 1469233 1481941 1493309 
550.584 1502376 1508749 1512537 1514173 1514115 1512688 1510025 1506185 
554.441 1501398 1496282 1491873 1489377 1490021 1494411 1502287 1512501 
558.298 1523305 1532829 1539636 1543065 1543435 1541784 1539602 1538407 
562.155 1539415 1543389 1550546 1560608 1572814 1586064 1598990 1610222 
566.012 1618604 1623467 1624811 1623327 1620182 1616753 1614304 1613701 
569.869 1615418 1619524 1625897 1634326 1644542 1656168 1668670 1681336 
573.725 1693357 1704068 1713092 1720470 1726559 1731816 1736624 1741093 
577.582 1745186 1748850 1752361 1756484 1762372 1771290 1784108 1800870 
581.439 1820577 1841355 1860845 1876914 1888190 1894462 1896706 1896772 
585.296 1896843 1898883 1904140 1912895 1924445 1937257 1949385 1958899 
589.153 1964327 1965040 1961389 1954673 1946822 1939971 1935938 1935908 
593.010 1940182 1948316 1959351 1972157 1985722 1999335 2012580 2025281 
596.867 2037378 2048830 2059632 2069797 2079384 2088463 2097147 2105464 
600.724 2113422 2121025 2128320 2135459 2142706 2150361 2158672 2167733 
604.581 2177471 2187686 2198154 2208736 2219495 2230669 2242655 2255942 
608.438 2270996 2288221 2307838 2329857 2353944 2379393 2405125 2429876 
612.295 2452509 2472326 2489359 2504469 2519109 2534935 2553270 2574734 
616.152 2599030 2625181 2651899 2678087 2703153 2727108 2750401 2773537 
620.009 2796783 2820004 2842688 2864190 2883975 2901783 2917713 2932135 
623.866 2945569 2958687 2972268 2987244 3004658 3025479 3050309 3079122 
627.723 3111034 3144392 3177134 3207324 3233660 3255796 3274333 3290508 
631.579 3305690 3320910 3336614 3352695 3368719 3384259 3399119 3413393 
635.436 3427293 3441001 3454408 3467211 3478987 3489469 3498771 3507425 
639.293 3516286 3526272 3538057 3551914 3567675 3584882 3603035 3621824 
643.150 3641232 3661507 3682968 3705782 3729764 3754326 3778606 3801655 
647.007 3822719 3841454 3857952 3872640 3886090 3898782 3910958 3922646 
650.864 3933786 3944479 3955154 3966638 3980035 3996428 4016545 4040509 
654.721 4067739 4097088 4127118 4156464 4184149 4209686 4233094 4254708 
658.578 4275018 4294495 4313485 4332223 4350719 4368846 4386235 4402324 
662.435 4416348 4427590 4435497 4439965 4441445 4440978 4440037 4440306 
666.292 4443378 4450551 4462618 4479769 4501559 4526900 4554172 4581408 
670.149 4606594 4628109 4645066 4657583 4666745 4674350 4682350 4692264 
674.006 4704822 4719804 4736308 4753265 4769943 4786313 4803067 4821297 
677.863 4842050 4865845 4892399 4920777 4949437 4976883 5001927 5023963 
681.720 5043015 5059631 5074662 5089066 5103698 5119093 5135357 5152070 
685.577 5168331 5182982 5194904 5203490 5208913 5212265 5215402 5220435 
689.433 5229180 5242640 5260717 5282356 5305901 5329700 5352610 5374217 
693.290 5394809 5415070 5435636 5456739 5478089 5498974 5518558 5536223 
697.147 5551851 5565903 5579296 5593112 5608247 5625057 5643230 5661803 
701.004 5679356 5694410 5705803 5712970 5716100 5716004 5713846 5710757 
704.861 5707479 5704160 5700306 5695003 5687084 5675481 5659423 5638494 
708.718 5612715 5582511 5548574 5511918 5473590 5434571 5395567 5356773 
712.575 5317818 5277817 5235662 5190333 5141204 5088089 5031135 4970428 
716.432 4905713 4836154 4760521 4677606 4586827 4488659 4384822 4277944 
720.289 4170947 4066308 3965480 3868846 3775952 3686220 3599575 3516825 
724.146 3439679 3370255 3310470 3261456 3223270 3195008 3175312 3162976 
728.003 3157485 3159274 3169657 3190459 3223560 3270442 3331972 3408306 
731.860 3498976 3603105 3719541 3846957 3983867 4128597 4279270 4433806 
735.717 4589996 4745713 4899019 5048438 5192969 5332137 5465807 5593966 
739.574 5716451 5832776 5942181 6043789 6137082 6222190 6300216 6373214 
743.431 6443879 6515001 6588864 6666830 6749136 6835165 6923845 7014178 
747.287 7105618 7198103 7291870 7387071 7483400 7579995 7675527 7768598 
751.144 7858097 7943461 8024621 8101697 8174447 8241875 8302012 8352068 
755.001 8388945 8409869 8412922 8397404 8363800 8313390 8247852 8168801 
758.858 8077467 7974700 7861051 7737028 7603313 7460889 7311145 7155835 
762.715 6996989 6836829 6677540 6521092 6369002 6222177 6080844 5944702 
766.572 5813128 5685543 5561644 5441530 5325577 5214193 5107480 5005113 
770.429 4906326 4810127 4715657 4622452 4530646 4440743 4353393 4269059 
774.286 4187756 4109040 4032173 3956364 3881023 3805854 3730905 3656352 
778.143 3582447 3509373 3437294 3366350 3296664 3228316 3161208 3095007 
782.000 3029135 2962965 2896010 2828193 2759934 2692059 2625549 2561127 
785.857 2499047 2438944 2380025 2321360 2262238 2202410 2142126 2082004 
789.714 2022875 1965544 1910713 1858970 1810824 1766645 1726665 1690885 
793.571 1658970 1630378 1604493 1580867 1559329 1540005 1523165 1508902 
797.428 1496939 1486519 1476619 1466190 1454581 1441695 1428017 1414385 
801.285 1401628 1390327 1380679 1372547 1365768 1360235 1355998 1353161 
805.141 1351817 1351858 1353031 1354982 1357468 1360337 1363498 1366671 
808.998 1369197 1370027 1367908 1361916 1351958 1339109 1325620 1314388 
812.855 1308172 1308802 1316572 1330208 1347301 1365006 1380905 1393491 
816.712 1402399 1408134 1411679 1414004 1415771 1417196 1418162 1418358 
820.569 1417412 1415057 1411229 1406139 1400291 1394499 1389790 1387118 
824.426 1387152 1390000 1395166 1401646 1408307 1414252 1419160 1423408 
828.283 1427898 1433736 1441853 1452797 1466634 1483099 1501847 1522600 
832.140 1545203 1569549 1595447 1622497 1650190 1677959 1705448 1732677 
835.997 1760114 1788671 1819533 1854060 1893641 1939560 1992912 2054448 
839.854 2124362 2202146 2286530 2375613 2467213 2559283 2650332 2739604 
843.711 2826987 2912631 2996394 3077500 3154354 3224718 3286304 3337309 
847.568 3376983 3405935 3426021 3440108 3451639 3464204 3481311 3506175 
851.425 3541726 3590589 3655163 3737596 3839798 3963319 4109256 4278094 
855.282 4469491 4682177 4913903 5161565 5421393 5689275 5960999 6232482 
859.139 6499762 6759010 7006536 7238956 7453558 7648777 7824612 7982728 
862.995 8126101 8258219 8381974 8498777 8607924 8706764 8791494 8858185 
866.852 8903980 8927695 8930009 8912939 8879043 8830614 8769230 8695662 
870.709 8610109 8512617 8403344 8282657 8150898 8008144 7854066 7688031 
874.566 7509427 7318215 7115318 6902876 6683987 6462202 6240929 6022748 
878.423 5809252 5601017 5398064 5200410 5008529 4823566 4647310 4481869 
882.280 4329233 4191032 4068261 3961384 3870426 3795151 3735156 3689796 
886.137 3658079 3638595 3629461 3628523 3633587 3642798 3654857 3669178 
889.994 3685737 3704822 3726662 3751129 3777534 3804645 3830918 3854783 
893.851 3874970 3890733 3901962 3909054 3912767 3913883 3913022 3910469 
897.708 3906253 3900273 3892548 3883489 3874015 3865458 3859436 3857416 
901.565 3860410 3868742 3881931 3898897 3918187 3938340 3958157 3976892 
905.422 3994313 4010629 4026381 4042322 4059229 4077714 4098016 4119818 
909.279 4142098 4163210 4181056 4193586 4199228 4197314 4188271 4173481 
913.136 4154873 4134409 4113566 4093107 4073110 4053187 4032921 4012046 
916.993 3990572 3968664 3946403 3923603 3899799 3874371 3846882 3817300 
920.849 3786181 3754564 3723678 3694641 3668152 3644378 3623062 3603715 
924.706 3585848 3569135 3553373 3538392 3524045 3510048 3496138 3482215 
928.563 3468560 3455817 3444986 3437055 3432694 3431907 3433973 3437529 
932.420 3440946 3442802 3442356 3439731 3435940 3432555 3431257 3433360 
936.277 3439460 3449325 3462064 3476519 3491605 3506684 3521724 3537216 
940.134 3553978 3572848 3594485 3619219 3647105 3678010 3711808 3748383 
943.991 3787691 3829670 3874210 3921163 3970415 4022055 4076460 4134297 
947.848 4196369 4263345 4335459 4412332 4492974 4575988 4659924 4743619 
951.705 4826422 4908150 4988852 5068528 5146732 5222460 5294173 5359987 
955.562 5417985 5466427 5503864 5529221 5541687 5540760 5526424 5499261 
959.419 5460722 5413234 5359998 5304749 5251116 5202064 5159402 5123608 
963.276 5093870 5068588 5045830 5023905 5001686 4978703 4954931 4930494 
967.133 4905288 4878763 4849931 4817579 4780598 4738329 4690819 4638790 
970.990 4583489 4526395 4468864 4411999 4356526 4302971 4251797 4203574 
974.847 4158982 4118729 4083390 4053226 4028107 4007652 3991375 3978928 
978.703 3970263 3965658 3965554 3970337 3980159 3994836 4013934 4036940 
982.560 4063462 4093421 4126939 4164289 4205648 4250839 4299330 4350257 
986.417 4402627 4455577 4508565 4561582 4614974 4669509 4726108 4785648 
990.274 4848758 4915616 4985838 5058545 5132440 5206078 5278158 5347814 
994.131 5414799 5479495 5542760 5605709 5669446 5734921 5802847 5873886 
997.988 5948630 6027692 6111577 6200550 6294483 6392816 6494742 6599559 
1001.845 6707070 6817836 6933216 7055151 7185600 7326119 7477461 7639529 
1005.702 7811605 7992802 8182478 8380576 8587619 8804574 9032598 9272782 
1009.559 9526023 9793039 10074428 10370770 10682602 11010344 11354207 
1012.934 11714163 12090001 12481475 12888485 13311177 13749908 14205089 
1016.309 14676884 15164973 15668310 16185111 16712847 17248612 17789118 
1019.683 18331132 18871690 19408380 19939386 20463746 20981238 21492312 
1023.058 21997778 22498596 22995586 23489436 23980756 24470468 24960184 
1026.433 25452390 25950592 26459098 26982460 27525058 28090506 28681392 
1029.809 29299260 29944778 30617926 31318296 32045144 32797294 33572992 
1033.184 34369580 35183316 36009352 36841668 37673188 38496068 39301996 
1036.559 40082572 40829800 41536496 42196728 42805956 43360904 43859296 
1039.934 44299416 44679676 44998620 45255052 45448396 45578992 45648332 
1043.310 45658784 45613240 45514692 45366064 45170380 44931344 44653676 
1046.685 44343532 44008180 43655376 43292452 42925560 42559312 42196924 
1050.060 41840656 41492436 41154176 40827816 40515012 40216912 39933912 
1053.435 39665900 39412760 39174868 38953592 38751352 38571456 38417756 
1056.811 38294296 38205236 38154976 38148528 38191672 38291080 38453988 
1060.186 38687660 38998820 39393076 39874544 40445636 41107108 41858108 
1063.561 42696148 43617328 44616452 45687336 46823220 48017164 49262336 
1066.936 50552172 51880132 53239648 54623868 56025772 57438612 58856432 
1070.312 60274512 61689508 63099004 64501024 65893136 67272168 68634192 
1073.687 69974944 71290224 72576216 73829096 75044640 76217512 77341232 
1077.062 78408472 79411840 80344688 81201240 81976168 82663600 83256136 
1080.437 83744848 84119928 84372448 84496096 84488336 84350288 84085984 
1083.813 83700832 83200744 82592232 81882920 81082520 80203232 79259080 
1087.188 78264680 77233288 76175640 75099232 74008960 72908128 71799744 
1090.563 70687160 69574376 68465408 67363776 66271840 65190692 64120488 
1093.938 63060880 62011440 60972096 59942956 58924304 57916320 56919128 
1097.313 55932708 54957224 53993004 53040712 52101064 51174712 50262052 
1100.689 49363168 48477916 47606216 46748288 45904912 45077308 44267224 
1104.064 43476504 42707084 41960844 41239752 40546028 39882388 39252020 
1107.439 38658488 38105196 37594960 37129508 36709252 36333348 36000032 
1110.814 35707124 35452448 35234192 35050892 34901376 34784476 34698968 
1114.190 34643464 34616552 34616900 34643324 34694816 34770344 34868868 
1117.565 34989212 35130208 35290940 35470964 35670440 35890080 36130800 
1120.940 36393224 36677020 36980460 37300060 37630588 37965180 38295688 
1124.315 38613180 38908352 39172144 39396068 39572796 39696400 39762584 
1127.691 39768728 39713736 39597848 39422448 39189880 38903216 38566168 
1131.066 38182676 37756568 37290932 36787748 36247552 35669620 35052420 
1134.441 34394368 33694592 32953570 32173414 31357702 30511162 29639098 
1137.816 28746914 27839848 26922668 25999736 25075086 24152520 23235846 
1141.192 22329034 21436390 20562602 19712738 18891926 18105008 17356140 
1144.567 16648552 15984280 15364213 14788239 14255406 13764219 13312875 
1147.942 12899438 12522149 12179515 11870420 11594177 11350281 11138178 
1151.317 10956975 10805189 10680757 10581233 10504157 10447445 10409731 
1154.693 10390390 10389375 10406978 10443451 10498850 10573093 10666162 
1158.068 10778347 10910482 11063917 11240414 11441850 11670055 11926734 
1161.443 12213536 12532349 12885493 13275972 13707519 14184515 14711939 
1164.818 15295234 15940328 16653612 17442002 18312890 19274032 20333320 
1168.194 21498524 22776992 24175436 25699624 27354086 29141674 31063076 
1171.569 33116136 35295348 37591244 39990164 42474196 45021060 47604148 
1174.944 50192504 52750908 55239908 57616724 59836744 61855912 63633824 
1178.319 65136720 66340244 67230680 67805296 68071552 68045560 67750280 
1181.695 67213728 66467112 65542996 64473688 63289948 62020100 60689748 
1185.070 59321640 57935904 56550020 55178916 53834908 52527816 51265008 
1188.445 50051828 48891832 47787204 46738824 45746408 44808612 43923280 
1191.820 43087876 42299908 41557492 40859516 40205624 39595832 39029880 
1195.196 38506888 38025084 37581880 37174292 36799388 36454676 36138244 
1198.571 35848692 35584864 35345544 35129256 34934176 34758224 34599124 
1201.946 34454552 34322260 34200044 34085956 33978164 33875172 33775560 
1205.321 33677848 33580256 33480540 33375904 33263218 33139366 33001608 
1208.697 32847902 32677040 32488454 32281976 32057538 31814998 31554240 
1212.072 31275154 30977858 30662710 30330200 29980844 29615134 29233628 
1215.447 28837240 28427484 28006586 27577388 27142960 26706114 26269006 
1218.822 25832952 25398620 24966310 24536404 24109520 23686520 23268354 
1222.198 22855764 22449258 22049100 21655520 21268954 20890102 20519778 
1225.573 20158640 19807016 19464680 19131180 18806050 18489236 18181268 
1228.948 17883236 17596302 17321330 17058476 16807048 16565694 16332898 
1232.323 16107388 15888499 15676267 15471213 15274091 15085503 14905803 
1235.698 14734936 14572509 14417882 14270246 14128731 13992471 13860728 
1239.074 13733049 13609365 13490026 13375700 13267082 13164698 13068630 
1242.449 12978429 12893336 12812454 12735027 12660684 12589419 12521493 
1245.824 12457287 12397163 12341379 12290226 12244016 12203164 12168179 
1249.199 12139446 12117156 12101184 12091061 12086198 12085967 12089951 
1252.575 12097982 12110162 12126766 12148130 12174513 12206068 12242734 
1255.950 12284276 12330180 12379776 12432230 12486766 12542814 12600164 
1259.325 12658985 12719680 12782593 12847687 12914297 12981090 13046235 
1262.700 13107872 13164452 13215068 13259426 13297658 13329925 13356036 
1266.076 13375399 13386968 13389520 13381959 13363557 13333973 13293199 
1269.451 13241366 13178539 13104597 13019364 12922552 12814015 12693684 
1272.826 12561721 12418331 12263853 12098606 11922992 11737461 11542547 
1276.201 11338945 11127485 10909133 10685048 10456464 10224754 9991249 
1279.577 9757207 9523751 9291772 9062069 8835365 8612531 8394669 8183087 
1283.434 7979303 7784898 7601287 7429664 7270931 7125727 6994592 6878024 
1287.292 6776522 6690574 6620569 6566719 6528982 6507093 6500624 6509051 
1291.149 6531778 6568063 6616879 6676765 6745752 6821400 6901019 6981927 
1295.006 7061836 7139008 7212381 7281444 7346085 7406323 7462089 7513152 
1298.864 7559202 7599938 7635277 7665451 7691104 7713143 7732589 7750340 
1302.721 7766945 7782496 7796667 7808850 7818351 7824671 7827621 7827381 
1306.579 7824332 7818997 7811794 7803014 7792791 7781236 7768543 7754960 
1310.436 7740874 7726650 7712475 7698381 7684211 7669811 7655173 7640578 
1314.293 7626580 7613910 7603250 7595011 7589192 7585402 7583056 7581565 
1318.151 7580556 7580022 7580179 7581412 7584042 7588190 7593774 7600578 
1322.008 7608402 7617216 7627235 7638950 7652981 7670001 7690608 7715212 
1325.866 7744003 7777001 7814104 7855129 7899914 7948371 8000575 8056711 
1329.723 8117076 8182020 8251799 8326577 8406300 8490796 8579812 8673093 
1333.581 8770451 8871755 8976828 9085411 9197064 9311264 9427512 9545492 
1337.438 9665289 9787364 9912591 10041970 10176438 10316672 10462954 
1340.813 10615166 10772939 10935788 11103293 11275122 11451136 11631320 
1344.188 11815743 12004627 12198155 12396507 12599772 12807789 13020204 
1347.564 13236324 13455282 13676111 13897888 14119795 14341104 14561085 
1350.939 14778826 14993109 15202366 15404728 15598215 15780881 15951106 
1354.314 16107646 16249706 16376849 16489024 16586396 16669337 16738462 
1357.689 16794568 16838704 16872088 16896012 16911740 16920396 16922882 
1361.065 16919944 16912120 16899944 16883944 16864606 16842370 16817362 
1364.440 16789300 16757204 16719384 16673246 16615532 16542393 16449726 
1367.815 16333705 16191338 16021197 15824018 15603234 15365037 15118261 
1371.190 14873727 14643389 14439471 14273581 14156018 14095297 14097692 
1374.566 14166924 14303692 14505434 14766152 15076551 15424439 15795568 
1377.941 16174671 16546634 16897554 17215374 17490356 17714842 17883032 
1381.316 17990660 18034788 18013820 17927616 17777600 17566710 17299164 
1384.691 16980172 16615705 16212045 15775673 15312968 14829865 14331612 
1388.067 13822469 13305722 12783803 12258641 11732017 11205879 10682390 
1391.442 10163932 9652964 9151905 8663198 8189351 7733091 7297317 6884966 
1395.299 6498671 6140476 5811581 5512219 5241721 4998727 4781369 4587414 
1399.157 4414447 4260028 4121760 3997537 3885603 3784619 3693696 3612174 
1403.014 3539436 3474761 3417211 3365641 3318879 3275865 3235780 3198145 
1406.872 3162726 3129425 3098214 3069055 3041846 3016526 2993077 2971553 
1410.729 2952033 2934567 2919168 2905848 2894518 2885198 2878015 2873134 
1414.586 2870823 2871241 2874421 2880169 2888041 2897414 2907661 2918181 
1418.444 2928547 2938615 2948488 2958546 2969258 2981175 2994761 3010382 
1422.301 3028332 3048814 3072150 3098743 3129186 3164065 3203983 3249283 
1426.159 3299972 3355778 3416232 3480881 3549495 3622318 3699961 3783352 
1430.016 3873447 3971001 4076377 4189700 4310973 4440478 4579174 4728810 
1433.874 4891982 5071885 5271938 5495403 5745111 6023448 6332520 6674388 
1437.731 7051315 7465818 7920375 8416937 8956338 9537856 10158934 10815279 
1441.588 11501237 12210103 12934589 13666891 14398840 15121995 15827873 
1444.964 16508311 17155904 17764454 18329034 18846096 19313284 19729414 
1448.339 20094380 20409058 20675160 20894824 21070304 21203370 21295228 
1451.714 21346394 21356884 21326296 21254090 21139444 20981290 20778442 
1455.089 20529836 20235120 19895122 19512108 19089674 18632100 18143662 
1458.465 17628072 17088280 16526827 15946344 15349941 14741367 14124775 
1461.840 13504316 12883833 12266769 11656315 11055741 10468526 9898318 
1465.215 9348612 8822296 8321376 7846936 7399370 6978668 6584693 6217216 
1469.073 5875855 5559842 5267961 4998583 4749948 4520382 4308507 4113288 
1472.930 3933898 3769552 3619424 3482639 3358305 3245771 3144488 3053980 
1476.787 2973546 2902140 2838244 2780105 2725959 2674470 2624972 2577542 
1480.645 2532750 2491415 2454159 2421230 2392380 2366986 2344180 2323116 
1484.502 2302993 2283159 2263241 2243037 2222657 2202445 2182979 2164914 
1488.360 2148774 2134811 2122854 2112392 2102659 2092926 2082657 2071612 
1492.217 2059929 2047970 2036194 2025005 2014729 2005480 1997197 1989599 
1496.074 1982206 1974446 1965741 1955681 1944144 1931399 1918121 1905175 
1499.932 1893436 1883548 1875780 1870009 1865801 1862604 1859887 1857245 
1503.789 1854386 1851135 1847425 1843205 1838659 1834038 1829814 1826451 
1507.647 1824298 1823437 1823640 1824418 1825191 1825486 1825050 1823872 
1511.504 1822054 1819643 1816535 1812496 1807213 1800561 1792734 1784325 
1515.362 1776165 1769073 1763686 1760179 1758348 1757662 1757543 1757471 
1519.219 1757130 1756281 1754779 1752386 1748838 1743920 1737649 1730348 
1523.076 1722675 1715434 1709421 1705121 1702596 1701522 1701193 1700812 
1526.934 1699688 1697390 1693761 1688929 1683216 1677012 1670742 1664707 
1530.791 1659147 1654114 1649567 1645309 1641069 1636598 1631628 1626042 
1534.649 1619738 1612774 1605253 1597359 1589361 1581672 1574824 1569286 
1538.506 1565494 1563484 1562919 1563043 1562817 1561283 1557789 1552237 
1542.364 1545128 1537310 1529765 1523188 1517865 1513580 1509763 1505830 
1546.221 1501390 1496471 1491439 1486902 1483338 1480978 1479645 1478793 
1550.078 1477752 1476016 1473360 1469999 1466445 1463395 1461388 1460711 
1553.936 1461175 1462249 1463124 1463030 1461313 1457688 1452247 1445411 
1557.793 1437855 1430342 1423627 1418306 1414761 1413155 1413380 1415106 
1561.651 1417878 1421069 1424051 1426231 1427173 1426682 1424919 1422309 
1565.508 1419484 1417103 1415726 1415611 1416699 1418651 1420934 1423017 
1569.365 1424468 1425017 1424626 1423389 1421482 1419121 1416552 1414049 
1573.223 1411944 1410668 1410664 1412273 1415668 1420685 1426878 1433486 
1577.080 1439703 1444852 1448551 1450831 1452065 1452915 1454011 1455888 
1580.938 1458766 1462482 1466681 1470850 1474540 1477535 1479851 1481755 
1584.795 1483590 1485705 1488267 1491222 1494362 1497374 1500017 1502188 
1588.653 1503989 1505673 1507572 1509984 1513065 1516843 1521232 1526093 
1592.510 1531329 1536920 1542810 1548948 1555116 1560969 1566091 1570118 
1596.367 1572940 1574844 1576516 1578974 1583183 1589931 1599433 1611258 
1600.225 1624524 1638006 1650586 1661490 1670472 1677812 1684090 1690002 
1604.082 1696092 1702616 1709509 1716565 1723397 1729774 1735505 1740640 
1607.940 1745319 1749826 1754625 1760225 1767202 1776038 1787033 1800144 
1611.797 1815002 1830853 1846821 1862016 1875779 1887789 1898037 1906792 
1615.655 1914424 1921280 1927612 1933627 1939432 1945130 1950804 1956465 
1619.512 1962042 1967328 1972055 1976011 1979118 1981536 1983646 1985950 
1623.369 1988852 1992586 1997053 2001916 2006649 2010808 2014115 2016476 
1627.227 2018022 2018947 2019495 2019888 2020247 2020762 2021638 2023036 
1631.084 2025047 2027587 2030373 2032898 2034718 2035491 2035279 2034458 
1634.942 2033749 2033941 2035600 2038896 2043498 2048673 2053499 2057176 
1638.799 2059162 2059365 2058008 2055548 2052459 2049083 2045576 2041860 
1642.656 2037777 2033121 2027840 2022058 2016104 2010494 2005717 2002171 
1646.514 2000036 1999180 1999181 1999469 1999487 1998880 1997650 1996086 
1650.371 1994786 1994452 1995682 1998870 2004098 2011164 2019694 2029256 
1654.229 2039371 2049622 2059536 2068728 2076792 2083532 2089005 2093610 
1658.086 2098059 2103190 2109705 2117911 2127578 2138006 2148168 2157072 
1661.944 2164115 2169227 2172894 2176034 2179744 2184934 2192236 2201869 
1665.801 2213711 2227394 2242420 2258187 2274103 2289642 2304360 2318084 
1669.658 2330961 2343481 2356341 2370229 2385638 2402467 2420168 2437666 
1673.516 2453806 2467628 2478860 2487969 2496194 2505257 2516867 2532195 
1677.373 2551639 2574627 2599878 2625676 2650452 2673125 2693339 2711518 
1681.231 2728647 2745899 2764298 2784432 2806385 2829805 2854145 2878947 
1685.088 2904008 2929493 2955844 2983603 3013292 3045282 3079787 3116873 
1688.946 3156602 3198941 3243820 3290940 3339788 3389610 3439556 3488946 
1692.803 3537501 3585524 3633863 3683831 3736776 3793822 3855530 3921714 
1696.660 3991570 4063990 4137829 4212376 4287450 4363655 4442264 4525129 
1700.518 4614296 4711697 4818724 4935903 5062843 5198311 5340522 5487605 
1704.375 5638087 5791200 5947190 6107020 6272262 6444551 6625253 6815342 
1708.233 7015346 7225594 7446389 7678061 7920962 8175347 8441125 8717859 
1712.090 9004817 9301136 9606168 9919676 10241856 10573345 10914870 11267009 
1715.948 11629947 12003218 12385796 12776130 13172483 13573341 13977857 
1719.323 14386182 14799725 15221034 15653411 16100490 16565426 17050636 
1722.698 17557630 18087306 18640668 19219256 19825898 20464478 21139836 
1726.073 21857114 22621432 23437492 24309750 25242550 26240242 27307394 
1729.448 28448520 29668018 30970336 32360274 33843700 35427768 37120852 
1732.824 38931600 40867276 42932132 45126296 47446016 49885044 52436824 
1736.199 55096464 57861204 60729312 63697516 66758096 69896512 73090920 
1739.574 76313296 79531944 82714136 85827784 88842176 91727736 94456096 
1742.949 97001072 99340048 101455256 103334168 104968544 106352528 107481536 
1746.325 108351872 108962120 109314856 109417656 109282688 108924816 
1749.218 108359240 107600272 106661168 105555472 104298208 102906168 
1752.111 101396224 99783328 98077744 96284672 94405184 92439208 90388824 
1755.486 88260672 86066784 83823472 81548992 79260968 76974464 74701464 
1758.861 72451160 70230760 68046584 65904664 63810980 61771548 59792264 
1762.237 57878564 56035132 54265404 52571172 50952244 49406640 47931008 
1765.612 46521440 45174372 43887012 42657652 41485040 40367708 39303284 
1768.987 38288040 37317096 36385176 35487232 34619116 33777700 32960486 
1772.362 32164952 31387708 30624300 29869368 29117370 28363466 27604324 
1775.738 26838574 26066548 25289834 24510470 23730316 22950614 22172194 
1779.113 21395646 20621818 19852090 19088376 18332848 17587726 16854904 
1782.488 16135927 15432201 14745115 14076418 13428216 12802784 12202450 
1785.863 11629161 11084387 10569084 10083728 9628454 9202924 8806350 8437395 
1789.721 8094147 7774273 7475492 7195779 6933664 6688244 6459018 6245567 
1793.578 6047229 5862972 5691508 5531407 5381508 5240940 5109108 4985619 
1797.436 4870096 4761942 4660459 4564894 4474537 4388993 4308101 4231916 
1801.293 4160652 4094447 4033338 3977078 3925151 3876577 3830093 3784234 
1805.150 3737669 3689470 3639539 3588725 3538632 3491286 3448401 3410868 
1809.008 3378395 3349478 3321933 3293457 3262324 3227786 3190075 3150219 
1812.865 3109563 3069406 3030735 2994273 2960462 2929719 2902311 2878381 
1816.723 2857678 2839660 2823415 2808020 2792757 2777246 2761423 2745370 
1820.580 2728950 2711637 2692471 2670383 2644413 2614111 2579710 2542111 
1824.438 2502576 2462553 2423403 2386129 2351502 2319776 2290819 2264026 
1828.295 2238338 2212401 2185014 2155453 2123877 2091407 2059885 2031211 
1832.152 2006721 1986591 1969592 1953565 1936064 1915239 1890486 1862609 
1836.010 1833550 1805539 1780417 1758912 1740613 1724237 1708236 1691477 
1839.867 1673604 1655135 1637127 1620689 1606480 1594459 1583840 1573360 
1843.725 1561699 1547722 1530918 1511336 1489618 1466680 1443612 1421398 
1847.582 1400805 1382299 1366024 1351807 1339248 1327749 1316690 1305581 
1851.439 1294089 1282324 1270660 1259871 1250843 1244438 1241230 1241135 
1855.297 1243436 1246713 1249048 1248416 1243110 1232151 1215613 1194694 
1859.154 1171582 1148971 1129617 1115751 1108470 1107775 1112428 1120393 
1863.012 1129314 1137139 1142388 1144513 1143693 1140553 1135795 1130006 
1866.869 1123505 1116462 1109240 1102605 1097655 1095823 1098297 1105515 
1870.727 1116865 1130379 1143247 1152211 1154516 1148380 1133591 1111470 
1874.584 1084385 1055267 1026831 1001165 979553 962522 950251 942746 940098 
1878.924 942191 948575 957994 968320 976615 979641 974787 960743 938093 
1883.263 909342 878397 849802 827465 813923 809815 813929 823778 836457 
1887.603 849264 860189 868237 873070 875027 874624 872517 869472 866217 
1891.942 863486 861950 862100 864076 867708 872394 877248 881108 882831 
1896.282 881429 876274 867545 856170 843952 832994 825330 822183 823657 
1900.622 828675 835534 842779 849888 857683 867871 882146 900913 922425 
1904.961 942791 956913 960272 950535 928665 899009 867860 841548 824570 
1909.301 818211 820775 828442 836965 843099 845244 843589 839525 834729 
1913.640 830822 828764 829389 832988 839333 847445 855094 859236 856679 
1917.980 845101 824049 795424 762924 730973 703239 681462 665210 652535 
1922.320 640959 628544 614507 598765 581226 560934 536046 504247 464370 
1926.659 417519 367598 321041 285250 266594 268700 291462 331438 382698 
1930.999 438240 490981 534640 564007 575212 566526 538708 495372 442988 
1935.338 389400 342703 308854 290790 288138 298047 316497 340016 366025 
1939.678 392907 418978 442199 459314 466964 462473 445117 416341 379670 
1944.018 339705 301180 267755 242329 227208 224090 234015 256644 289269 
1948.357 326983 363494 392479 410114 416151 413532 407346 401657 397669 
1952.697 392717 381755 360044 326621 286008 248305 226405 231952 271436 
1957.036 343737 440085 545737 644058 719917 762780 768609 739906 685048 
1961.376 616740 549729 498361 473374 478939 510830 556562 597975 615966 
1965.716 596301 533205 431967 306012 173007 49096 -54660 -133710 -187713 
1970.055 -218046 -224930 -207306 -163550 -94933 -6731 92513 192761 288430 
1974.395 380297 476465 589420 728878 896542 1081329 1260566 1407186 1498376 
1978.734 1524057 1490405 1416439 1326823 1244652 1185199 1153880 1147319 
1982.592 1155700 1167169 1171064 1160927 1135242 1097781 1055491 1016795 
1986.449 988557 974401 972973 978518 982406 975793 953062 913760 862813 
1990.789 808896 761009 725118 701793 686182 670667 648432 616695 578647 
1995.128 542181 516926 509899 522426 549010 579266 601134 605247 587647 
1999.468 550680 501060 447721 398198 357834 329093 313391 311988 326906 
2003.808 360052 411425 477379 549886 617737 669735 697726 700005 681601 
2008.147 652372 622529 599377 584458 574428 563086 544386 515248 477218 
2012.487 435239 397126 370071 358876 364786 384886 412501 438728 453269 
2016.826 446661 411794 345548 249727 131041 434 -129137 -244577 -334100 
2021.166 -389920 -407822 -388191 -336081 -261215 -177211 -100307 -46492 
2025.023 -27839 -48788 -102957 -174094 -239059 -274011 -262521 -199482 
2028.881 -93737 35037 163355 271986 351911 407143 451270 501812 571420 
2033.220 663836 771039 877715 967039 1027409 1056834 1063475 1061083 1064422 
2037.560 1082557 1117449 1162315 1205340 1233618 1236905 1211061 1159195 
2041.417 1090406 1017320 952858 906784 883739 882272 895904 915121 929805 
2045.757 932518 919982 894069 860317 826171 797692 777876 765684 757317 
2050.097 748597 737078 723959 714002 713703 729338 764162 816970 881475 
2054.436 947549 1003505 1039960 1052079 1040807 1012539 976748 943518 920681 
2058.776 911628 914936 924334 930565 923925 896614 844927 770714 680827 
2063.115 586281 499320 431147 389219 376228 389986 424816 473627 529892 
2067.455 589252 649618 710280 770727 829154 882014 924395 951428 959695 
2071.795 948604 921039 882547 840433 802036 773168 757506 755776 766105 
2076.134 784606 806466 826778 841949 850179 851780 848939 844574 841159 
2080.474 839490 838237 834269 823832 804397 775720 740685 704569 673717 
2084.813 653666 648014 657547 680880 715310 757648 804582 852331 896072 
2089.153 929539 945193 936384 898830 832931 744850 645427 548244 466578 
2093.493 410217 383714 385816 410870 450816 497710 545090 588761 626518 
2097.832 657706 682454 701774 716971 729758 741241 751635 759565 762218 
2102.172 756458 740343 714559 682809 651351 627035 614862 616323 628577 
2106.511 645370 659608 665793 662203 651674 640240 634855 640470 657932 
2110.851 683092 707820 722183 717361 688463 635938 565787 488088 414458 
2115.191 355662 318905 307152 318762 348692 390164 436094 480375 517791 
2119.530 544043 555084 547004 516849 463382 388379 297126 197710 99215 9514 
2124.352 -66862 -129587 -181903 -228327 -272620 -315508 -354933 -387186 
2128.209 -409509 -422521 -431548 -445572 -474950 -528053 -607970 -711405 
2132.067 -828817 -946798 -1051289 -1130288 -1176177 -1186546 -1163758 
2135.442 -1113876 -1045697 -969009 -894131 -829882 -782713 -755424 -746892 
2139.300 -752938 -767868 -786971 -808400 -834009 -868798 -919136 -990426 
2143.157 -1084961 -1201118 -1333173 -1472710 -1609357 -1733111 -1834841 
2146.532 -1907545 -1947016 -1952818 -1929112 -1883779 -1827826 -1773205 
2149.907 -1730771 -1708461 -1710145 -1736476 -1785281 -1853924 -1939074 
2153.283 -2038075 -2147172 -2261285 -2372012 -2468137 -2535621 -2559151 
2156.658 -2523930 -2418687 -2238231 -1987353 -1682356 -1349814 -1022427 
2160.033 -731814 -500914 -341797 -253867 -228703 -252472 -309130 -382264 
2163.891 -456123 -516465 -551448 -553996 -523418 -466395 -396502 -330840 
2167.748 -285899 -272984 -295174 -347505 -419971 -501504 -584876 -668690 
2171.605 -756585 -853638 -962114 -1077974 -1190829 -1287677 -1357713 
2174.981 -1397309 -1412609 -1416530 -1424424 -1445994 -1481149 -1519005 
2178.356 -1541520 -1529311 -1468243 -1353862 -1191595 -995764 -784819 
2181.731 -577526 -390181 -234005 -115258 -34135 14713 41947 60949 86044 
2186.071 128069 191209 271821 359885 441886 506038 545210 558850 551033 
2190.410 528068 495212 454969 407877 354562 298694 247803 212622 203634 
2194.750 227220 283410 365141 460116 554342 635532 695033 728622 734962 
2199.090 714369 668199 598981 511266 413061 314775 227888 162099 122304 
2203.429 107281 110492 122026 132338 135528 130793 122323 117189 122428 
2207.769 142613 177990 224970 276978 326818 368612 399704 420980 436138 
2212.108 450282 467764 490216 516237 541170 559316 565875 559220 541154 
2216.448 517089 493485 475598 465393 461336 459043 453934 443208 427335 
2220.788 410423 398569 397887 412842 445006 493547 555672 627660 705265 
2225.127 783805 857741 921548 970372 1001555 1015844 1017377 1012643 1007899 
2229.467 1006639 1008074 1006985 996023 968836 923174 862140 793824 728233 
2233.806 674216 636456 614632 604219 599169 594602 588885 583449 581710 
2238.146 586856 600079 619984 643113 665615 684865 700343 713622 727455 
2242.486 744553 766417 793264 824328 858408 894384 930974 966308 997505 
2246.825 1020028 1029246 1021075 994410 952091 901302 852097 814977 797873 
2251.165 803669 829667 868465 910609 948086 976656 997120 1014314 1034584 
2255.504 1062564 1098901 1139411 1176587 1202163 1210197 1199267 1172897 
2259.362 1138509 1104997 1080069 1068311 1070561 1084487 1106100 1131389 
2263.219 1157508 1183203 1208628 1234359 1260859 1287728 1313633 1336146 
2267.077 1352565 1360554 1358512 1346776 1327615 1305363 1285477 1273511 
2270.934 1273507 1286937 1312128 1344975 1380115 1412738 1439896 1461306 
2274.792 1478408 1493682 1509011 1525000 1540829 1555211 1567201 1577426 
2278.649 1587978 1601897 1621804 1649020 1682680 1720018 1757262 1790794 
2282.506 1818243 1838975 1853770 1864532 1873047 1880771 1888314 1895475 
2286.364 1901511 1905357 1905859 1902011 1893200 1879317 1860947 1839250 
2290.221 1815779 1792164 1769681 1749056 1730366 1713302 1697424 1682578 
2294.079 1668793 1656389 1645690 1636750 1629368 1623090 1617475 1612167 
2297.936 1606966 1601685 1595844 1588740 1579280 1566565 1550292 1531065 
2301.793 1510712 1491840 1477385 1469857 1470669 1479948 1496510 1518354 
2305.651 1542998 1568122 1591687 1612253 1628869 1641055 1648769 1652418 
2309.508 1652756 1650805 1647811 1645089 1643828 1645051 1649304 1656675 
2313.366 1666636 1678091 1689646 1700005 1708270 1714425 1719184 1723931 
2317.223 1730046 1738453 1749583 1763596 1781066 1803600 1834007 1875527 
2321.081 1930289 1997482 2071697 2142947 2198157 2224187 2211276 2155820 
2324.938 2061258 1937502 1798377 1658744 1531284 1424592 1342116 1282774 
2328.795 1242421 1215899 1198512 1187019 1179451 1174601 1171256 1168036 
2332.653 1163414 1156289 1146565 1135227 1124105 1115349 1110517 1110159 
2336.510 1113574 1119229 1125145 1129544 1131289 1130073 1126324 1121108 
2340.368 1115765 1111667 1109849 1110760 1114158 1119112 1124123 1127605 
2344.225 1128261 1125736 1120374 1113485 1106539 1100903 1097246 1095396 
2348.083 1094583 1093597 1091351 1087145 1080695 1072181 1061987 1050516 
2351.940 1038347 1026002 1014205 1003782 995498 989897 987035 986489 987218 
2356.280 988012 987528 984718 978988 970243 958932 945913 932299 919383 
2360.619 908192 899341 892650 887211 881376 873265 861273 844706 824027 
2364.959 800952 777770 757000 740442 728817 721754 718013 716121 714900 
2369.298 713851 713356 714348 718131 725944 738746 756860 780005 807064 
2373.638 836290 865321 891674 913122 928205 936456 938521 935692 929427 
2377.978 920879 910595 898646 885063 870308 855708 843379 835659 834436 
2382.317 840374 852666 869170 887140 904012 918208 929493 938638 947069 
2386.657 956102 966561 978615 991936 1006040 1020527 1035198 1049860 1064098 
2390.996 1077239 1088321 1096429 1101064 1102288 1100859 1097923 1094680 
2394.854 1091950 1090020 1088700 1087467 1085856 1083634 1080923 1077977 
2398.711 1075037 1072065 1068867 1064968 1060064 1054161 1047597 1041151 
2402.569 1035724 1032032 1030470 1030966 1032878 1035395 1037623 1039071 
2406.426 1039706 1039954 1040823 1043369 1048534 1056725 1067638 1080217 
2410.283 1092852 1103636 1110986 1113865 1112222 1106830 1099140 1090923 
2414.141 1083746 1078612 1075658 1074288 1073168 1070673 1065336 1056155 
2417.998 1043063 1027030 1009981 994563 983624 979538 983757 996254 1015669 
2422.338 1039253 1063743 1085815 1102828 1113218 1116630 1113807 1106109 
2426.195 1095371 1083330 1071595 1061416 1053663 1048841 1047018 1048006 
2430.053 1051263 1056108 1061703 1067277 1071892 1074636 1074475 1070338 
2433.910 1061452 1047707 1029902 1009966 990523 974604 964490 961209 964113 
2438.250 971054 978977 985068 987490 985857 981188 975276 969974 966679 
2442.589 966061 968229 973118 980575 990464 1002074 1013756 1022932 1026423 
2446.929 1021469 1007008 984472 957904 933093 915734 909889 916406 933041 
2451.269 955176 977587 996288 1009535 1017955 1023696 1028946 1034888 
2455.126 1041137 1046238 1048424 1046682 1041363 1033838 1025884 1018832 
2458.983 1012871 1007237 1000730 992673 983379 974346 967631 965054 967433 
2463.323 974105 983258 992647 1000161 1004726 1006135 1005053 1002337 998787 
2467.663 995112 991881 989681 989214 991042 995291 1001252 1007572 1012397 
2472.002 1014282 1012370 1007159 1000035 993015 987756 985309 985674 988160 
2476.342 991739 995535 998984 1001797 1003691 1004251 1002929 999393 993798 
2480.681 987223 981284 977740 977665 981001 986256 991106 993184 991192 
2485.021 985509 978147 971962 969756 972954 981209 992197 1002591 1009036 
2489.361 1009073 1001991 988737 971740 954006 938534 927796 923253 925364 
2493.700 933410 945902 960577 974767 985911 992144 992570 987618 978941 
2498.040 968983 960450 955708 956360 963045 975352 992095 1011483 1031250 
2502.379 1049035 1062501 1069683 1069621 1062587 1050314 1035951 1023252 
2506.237 1015721 1015774 1023918 1038592 1056823 1074920 1089762 1099479 
2510.094 1103823 1103850 1101222 1097440 1093271 1088697 1083238 1076658 
2513.952 1069236 1062181 1057059 1055418 1058019 1064460 1073371 1082691 
2517.809 1090582 1095637 1097414 1096200 1092589 1087317 1080726 1073198 
2521.667 1064974 1056816 1049719 1044872 1043122 1044706 1048993 1054861 
2525.524 1061052 1066722 1071930 1077241 1083587 1091643 1101345 1111830 
2529.381 1121854 1130477 1137325 1143065 1148656 1155021 1161998 1168283 
2533.239 1171424 1168830 1158793 1141609 1119583 1096833 1077905 1066484 
2537.096 1064132 1069852 1080398 1091552 1099380 1101467 1097554 1089380 
2540.954 1079887 1072031 1067676 1067283 1069587 1072376 1073337 1070842 
2544.811 1064532 1055513 1045759 1037764 1033583 1034630 1041191 1052826 
2548.668 1068559 1087251 1107881 1129539 1151370 1172515 1192047 1209077 
2552.526 1223156 1234327 1243201 1250829 1258298 1266275 1274659 1282549 
2556.383 1288626 1291466 1290047 1284194 1274336 1261696 1247484 1232916 
2560.241 1218894 1206198 1195360 1187066 1181841 1180236 1182277 1187676 
2564.098 1195636 1205086 1214900 1224445 1233313 1241774 1250307 1259480 
2567.956 1269681 1280980 1292819 1304344 1314229 1321197 1324134 1322787 
2571.813 1317750 1310736 1304229 1300893 1302837 1310899 1324351 1340952 
2575.670 1357822 1372220 1382416 1388319 1391147 1392852 1395370 1399723 
2579.528 1405861 1412737 1418906 1423207 1425024 1424441 1421934 1418065 
2583.385 1412982 1406666 1398934 1389909 1379927 1369854 1360508 1352573 
2587.243 1346353 1341840 1338836 1337384 1337798 1340609 1346373 1355007 
2591.100 1365981 1378091 1389954 1400362 1408713 1415144 1420159 1424584 
2594.958 1428993 1433666 1438636 1444035 1450203 1457612 1466681 1477419 
2598.815 1489052 1500254 1509253 1514720 1516205 1514303 1510652 1507262 
2602.672 1505803 1507096 1510968 1516520 1522652 1528621 1534233 1539672 
2606.530 1545218 1550766 1555643 1558751 1559188 1556523 1551324 1544992 
2610.387 1539316 1535847 1535298 1537274 1540646 1543844 1545788 1546214 
2614.245 1545928 1546310 1548914 1554778 1564072 1575999 1589117 1601882 
2618.102 1613007 1621920 1628618 1633680 1637794 1641610 1645454 1649317 
2621.959 1652908 1655830 1657669 1658220 1657484 1655848 1653867 1652476 
2625.817 1652567 1654858 1659638 1666638 1674877 1682943 1689236 1692463 
2629.674 1691943 1687937 1681533 1674437 1668497 1665396 1666046 1670715 
2633.532 1678911 1689562 1701344 1712829 1722654 1729796 1733455 1733426 
2637.389 1730071 1724469 1718218 1713233 1711283 1713611 1720468 1731077 
2641.247 1743867 1756725 1767678 1775194 1778612 1777985 1774021 1767671 
2645.104 1759939 1751653 1743534 1736116 1729861 1724967 1721514 1719147 
2648.961 1717099 1714471 1710310 1704008 1695556 1685550 1675203 1665914 
2652.819 1658949 1654997 1653977 1655018 1656693 1657253 1655135 1649248 
2656.676 1639227 1625479 1608986 1591106 1573079 1556013 1540389 1526156 
2660.534 1512848 1499884 1486668 1472921 1458714 1444264 1429980 1416094 
2664.391 1402687 1389635 1376838 1364342 1352406 1341522 1332199 1324777 
2668.249 1319151 1314846 1311130 1307234 1302791 1297854 1293005 1289086 
2672.106 1286758 1286274 1287186 1288511 1288878 1287059 1282245 1274348 
2675.963 1263947 1252145 1240268 1229679 1221436 1216257 1214521 1216310 
2679.821 1221284 1228854 1237988 1247450 1255856 1261885 1264655 1263903 
2683.678 1260022 1254010 1247213 1240882 1235826 1232334 1229982 1228017 
2687.536 1225636 1222310 1217885 1212873 1208040 1204204 1201961 1201555 
2691.393 1202689 1204878 1207392 1209592 1210935 1210990 1209529 1206398 
2695.250 1201589 1195406 1188464 1181808 1176684 1174231 1175263 1179672 
2699.108 1186640 1194578 1201624 1206105 1207044 1204347 1198846 1191833 
2702.965 1184754 1178713 1174363 1171676 1170446 1170220 1170628 1171461 
2706.823 1172548 1173600 1174289 1174081 1172632 1169731 1165632 1160988 
2710.680 1156686 1153599 1152307 1152911 1155095 1158196 1161471 1164329 
2714.538 1166389 1167623 1168039 1167819 1167118 1166016 1164804 1163783 
2718.395 1163535 1164551 1167223 1171435 1176603 1181628 1185125 1185936 
2722.252 1183359 1177610 1169699 1161130 1153661 1148587 1146447 1147015 
2726.110 1149370 1152374 1155050 1156952 1158233 1159524 1161665 1165240 
2729.967 1170525 1177319 1185057 1193072 1200744 1207604 1213315 1217683 
2733.825 1220469 1221453 1220469 1217571 1213116 1207725 1202295 1197679 
2737.682 1194564 1193235 1193629 1195250 1197496 1199688 1201256 1201798 
2741.540 1201119 1199220 1196228 1192527 1188578 1184949 1182035 1180120 
2745.397 1179051 1178394 1177535 1175931 1173444 1170497 1167990 1167036 
2749.254 1168611 1173011 1179714 1187348 1194065 1198115 1198315 1194371 
2753.112 1187072 1177909 1168569 1160599 1154977 1151972 1151352 1152485 
2756.969 1154679 1157335 1159927 1161966 1163036 1162732 1160821 1157348 
2760.827 1152739 1147675 1142998 1139400 1137187 1136184 1135864 1135573 
2764.684 1134837 1133527 1131903 1130490 1129651 1129459 1129517 1129214 
2768.542 1127744 1124783 1120468 1115549 1111084 1108145 1107365 1108781 
2772.399 1111885 1115797 1119737 1123244 1126362 1129620 1133687 1139129 
2776.256 1146254 1154887 1164480 1174281 1183473 1191293 1197163 1200738 
2780.114 1201802 1200513 1197101 1192161 1186373 1180462 1174959 1170246 
2783.971 1166369 1163358 1161221 1160229 1160821 1163632 1169250 1177975 
2787.829 1189549 1203265 1217910 1232161 1244784 1254910 1262227 1266837 
2791.686 1269346 1270500 1271112 1271864 1273216 1275251 1277903 1280772 
2795.543 1283427 1285427 1286520 1286685 1286148 1285321 1284643 1284480 
2799.401 1285142 1286760 1289429 1293149 1298071 1304122 1311188 1318913 
2803.258 1326858 1334449 1341235 1347057 1351959 1356393 1360791 1365557 
2807.116 1370852 1376581 1382698 1389129 1396004 1403767 1412851 1423598 
2810.973 1436120 1450015 1464745 1479464 1493566 1506580 1518146 1528084 
2814.831 1536137 1541935 1545270 1546139 1544967 1542821 1541090 1541316 
2818.688 1544644 1551738 1562317 1575549 1590114 1604817 1618589 1630946 
2822.545 1641707 1651069 1659363 1666997 1674311 1681599 1688994 1696545 
2826.403 1704069 1711255 1717836 1723801 1729569 1735995 1744362 1755796 
2830.260 1771106 1790268 1812504 1836352 1860240 1882969 1904023 1923656 
2834.118 1942469 1961177 1980085 1998954 2017125 2034024 2049470 2064004 
2837.975 2078660 2094757 2113234 2134420 2157713 2182052 2206280 2229772 
2841.833 2252760 2276152 2301283 2329289 2360440 2394118 2428777 2462553 
2845.690 2493685 2521283 2545316 2566740 2586856 2606885 2627560 2648747 
2849.547 2669519 2688324 2703479 2713359 2716754 2712954 2701879 2683779 
2853.405 2659387 2629728 2596126 2560021 2522940 2486378 2451648 2419639 
2857.262 2390734 2364944 2341736 2320580 2300821 2282158 2264639 2248642 
2861.120 2234668 2223173 2214319 2207923 2203400 2200082 2197517 2195713 
2864.977 2195213 2197110 2202679 2213161 2229256 2251211 2278528 2310371 
2868.834 2345826 2384103 2424731 2467423 2512143 2558767 2607066 2656730 
2872.692 2707482 2759205 2811998 2866234 2922178 2979864 3038775 3097812 
2876.549 3155410 3209816 3259420 3303194 3340689 3372084 3397986 3418971 
2880.407 3435481 3447624 3455247 3458092 3456040 3449215 3438038 3423334 
2884.264 3405846 3386431 3365619 3343830 3321341 3298298 3275174 3252399 
2888.122 3230750 3211091 3194266 3181002 3171673 3166407 3164892 3166668 
2891.979 3171116 3177641 3185887 3195662 3207003 3220130 3235251 3252504 
2895.836 3271833 3292924 3315158 3337740 3359700 3380173 3398396 3414011 
2899.694 3427255 3438884 3450122 3462650 3477959 3497300 3521108 3549043 
2903.551 3579964 3612010 3643303 3672195 3697613 3719465 3738530 3756215 
2907.409 3774295 3794537 3818247 3846109 3878053 3913376 3950918 3989508 
2911.266 4028182 4066481 4104486 4142982 4182860 4225147 4270458 4318838 
2915.124 4369909 4422739 4476328 4529815 4582602 4634553 4685730 4736402 
2918.981 4786698 4836579 4885729 4933687 4979726 5023187 5063312 5099541 
2922.838 5131455 5159010 5182422 5202484 5220263 5237090 5254268 5272888 
2926.696 5293621 5316697 5341981 5369149 5397921 5428207 5460283 5494809 
2930.553 5532682 5575132 5623549 5679312 5743613 5817253 5900415 5992593 
2934.411 6092646 6199221 6310976 6427394 6548851 6676757 6813197 6960340 
2938.268 7119546 7290906 7472638 7661363 7852500 8040827 8221434 8390000 
2942.125 8543350 8679274 8796487 8894122 8971824 9029240 9066231 9082770 
2945.983 9079155 9055732 9013195 8952341 8874026 8779285 8669332 8545661 
2949.840 8410204 8265433 8114229 7959806 7805325 7653649 7506753 7365824 
2953.698 7230969 7101625 6976805 6855548 6737361 6622205 6510764 6403896 
2957.555 6302578 6207409 6118550 6035582 5957510 5883197 5811490 5741451 
2961.413 5672589 5605042 5539271 5476168 5416638 5361304 5310264 5262974 
2965.270 5218347 5174998 5131743 5087967 5043773 5000204 4958883 4921406 
2969.127 4889136 4862781 4842298 4827103 4816359 4809324 4805576 4805007 
2972.985 4807790 4814163 4824384 4838588 4856923 4879493 4906242 4937104 
2976.842 4971938 5010484 5052674 5098800 5149703 5206797 5271779 5346249 
2980.700 5431052 5526080 5630059 5741124 5857304 5977544 6101882 6231824 
2984.557 6369724 6518215 6679354 6853957 7041479 7240169 7447391 7660342 
2988.415 7876170 8092180 8305868 8514782 8716454 8908461 9088532 9254716 
2992.272 9405304 9538865 9654048 9749728 9824906 9879062 9912176 9924997 
2996.129 9918818 9895321 9855959 9802021 9734268 9653179 9559240 9453372 
2999.987 9336878 9211469 9078852 8940354 8796684 8647846 8493546 8333730 
3003.844 8168836 8000258 7829935 7659960 7491948 7326524 7163195 7000380 
3007.702 6836245 6669163 6498512 6324872 6149968 5976349 5806444 5642246 
3011.559 5484770 5333797 5188267 5046652 4907448 4769963 4634310 4501782 
3015.417 4374121 4253408 4141236 4038300 3944170 3857388 3775701 3696909 
3019.274 3618963 3540761 3462037 3383449 3305929 3230607 3158360 3089381 
3023.131 3023471 2959920 2897916 2836731 2776005 2715913 2657118 2600560 
3026.989 2547353 2498291 2453852 2413827 2377574 2344067 2312193 2281144 
3030.846 2250501 2220244 2190678 2162223 2135216 2109767 2085837 2063395 
3034.704 2042308 2022657 2004534 1987950 1972548 1957674 1942378 1925761 
3038.561 1907170 1886614 1864645 1842510 1821424 1802427 1785982 1771831 
3042.418 1759281 1747504 1735930 1724495 1713671 1704183 1696655 1691169 
3046.276 1687184 1683556 1679026 1672604 1663950 1653556 1642617 1632606 
3050.133 1624598 1619063 1615574 1612984 1609820 1604936 1597838 1588896 
3053.991 1579111 1569755 1562035 1556647 1553758 1553092 1554269 1556872 
3057.848 1560746 1565677 1571267 1576715 1580841 1582291 1580067 1573809 
3061.706 1564008 1552182 1540139 1529714 1522070 1517657 1516058 1516440 
3065.563 1517922 1519979 1522263 1524671 1527019 1528935 1529792 1529076 
3069.420 1526590 1522684 1518293 1514487 1512152 1511679 1512791 1514738 
3073.278 1516603 1517799 1518129 1517935 1517616 1517555 1517793 1518237 
3077.135 1518733 1519342 1520447 1522439 1525535 1529345 1532650 1533809 
3080.993 1531189 1523745 1511632 1496118 1479310 1463377 1450044 1440003 
3084.850 1433027 1428375 1425209 1423075 1421860 1421710 1422636 1424388 
3088.708 1426265 1427615 1427994 1427502 1426794 1426582 1427394 1429108 
3092.565 1430946 1431739 1430439 1426663 1420762 1413853 1407275 1402125 
3096.422 1398860 1397222 1396444 1395666 1394099 1391432 1387457 1382101 
3100.280 1375342 1367150 1357668 1347457 1337441 1329032 1323538 1322020 
3104.137 1324843 1331728 1341878 1354267 1367773 1381554 1394624 1406024 
3107.995 1414462 1418522 1416941 1408864 1394496 1375003 1352530 1329897 
3111.852 1309978 1295230 1287330 1286894 1293488 1305805 1321762 1339009 
3115.709 1355262 1368769 1378504 1384425 1387164 1387807 1387218 1385793 
3119.567 1383334 1379099 1372367 1362959 1351459 1339247 1328139 1319870 
3123.424 1315570 1315690 1319729 1326854 1335999 1346152 1356455 1366030 
3127.282 1373933 1379369 1381811 1381375 1379001 1376039 1374209 1374557 
3131.139 1377147 1381007 1384312 1385280 1382913 1377463 1370511 1364239 
3134.997 1360714 1360902 1364553 1370117 1375555 1379043 1379675 1377513 
3138.854 1373680 1369363 1365643 1363037 1361407 1360197 1358734 1356513 
3142.711 1353136 1348452 1342527 1335527 1327946 1320500 1314189 1310033 
3146.569 1308824 1310898 1315922 1323084 1331313 1339661 1347421 1354152 
3150.426 1359715 1363803 1366100 1366193 1363891 1359574 1354157 1349088 
3154.284 1345759 1345025 1346930 1350547 1354449 1357276 1358307 1357743 
3158.141 1356482 1355537 1355500 1356088 1356062 1353921 1348523 1339737 
3161.999 1328855 1318066 1310025 1306775 1309101 1316297 1326503 1337316 
3165.856 1346639 1353232 1356967 1358583 1359267 1360142 1361928 1365009 
3169.713 1369449 1375227 1382482 1391320 1401882 1413711 1425863 1436830 
3173.571 1444794 1448137 1445881 1438160 1426026 1411528 1396911 1384109 
3177.428 1374154 1366993 1361596 1356548 1350499 1342895 1334204 1325734 
3181.286 1319188 1316068 1317002 1321609 1328677 1336536 1343811 1349726 
3185.143 1354374 1358512 1363014 1368423 1374474 1380431 1385047 1387347 
3189.000 1386778 1383668 1378785 1373261 1368055 1363798 1360843 1359329 
3192.858 1359470 1361663 1366324 1373510 1382580 1391974 1399456 1402641 
3196.715 1399793 1390610 1376556 1360808 1347433 1340412 1342530 1354552 
3200.573 1374985 1400536 1426808 1449426 1464977 1471514 1469011 1458869 
3204.430 1443597 1426091 1409033 1394524 1383757 1377173 1374525 1375290 
3208.288 1378975 1385163 1393748 1404753 1417996 1432954 1448670 1463683 
3212.145 1476529 1485884 1491132 1492443 1490762 1487562 1484340 1482269 
3216.002 1481813 1482789 1484530 1486164 1487076 1487073 1486498 1486063 
3219.860 1486534 1488406 1491746 1495993 1500069 1502732 1502730 1499404 
3223.717 1492697 1483377 1472877 1462882 1454969 1449970 1448102 1448610 
3227.575 1450296 1451939 1452794 1452816 1452611 1453218 1455478 1459676 
3231.432 1465163 1470586 1474355 1475127 1472402 1466743 1459490 1452365 
3235.290 1446734 1443072 1440860 1438681 1434723 1427665 1416910 1403140 
3239.147 1388012 1373867 1362971 1357320 1357836 1364632 1376820 1392767 
3243.004 1410511 1427904 1442905 1453860 1459747 1460257 1455954 1448226 
3246.862 1439018 1430494 1424749 1423210 1426607 1434682 1446523 1460664 
3250.719 1475409 1489115 1500398 1508026 1511256 1509650 1503314 1492924 
3254.577 1479742 1465588 1452476 1442392 1436687 1435897 1439544 1446322 
3258.434 1454509 1462328 1468512 1472397 1473859 1473334 1471150 1467644 
3262.292 1462816 1456653 1449124 1440610 1431755 1423543 1417098 1413351 
3266.149 1412718 1415124 1419991 1426335 1433086 1439194 1443815 1446501 
3270.006 1447196 1446315 1444601 1443161 1443144 1445437 1450525 1458146 
3273.864 1467391 1476891 1485277 1491460 1495091 1496551 1496902 1497244 
3277.721 1498517 1500889 1503942 1506557 1507470 1505682 1500818 1493107 
3281.579 1483427 1472987 1463083 1454859 1449270 1447141 1449069 1455274 
3285.436 1465572 1479074 1494046 1508307 1519404 1525407 1525510 1520260 
3289.293 1511639 1502376 1495314 1492449 1494331 1500116 1507919 1515560 
3293.151 1521174 1523989 1524146 1522438 1519936 1517311 1514862 1512678 
3297.008 1510691 1509277 1509057 1510801 1515021 1521529 1529320 1536871 
3300.866 1542623 1545491 1545263 1542503 1538359 1533738 1528995 1523796 
3304.723 1517346 1508858 1498154 1485910 1473563 1462675 1454597 1449837 
3308.581 1448211 1448920 1451225 1454615 1459082 1464802 1471810 1479641 
3312.438 1487174 1492992 1495871 1495235 1491458 1485771 1479717 1474671 
3316.295 1471267 1469294 1467886 1466123 1463304 1459496 1455475 1452432 
3320.153 1451587 1453743 1459066 1466905 1476058 1484936 1492048 1496159 
3324.010 1496687 1493788 1488373 1481932 1475946 1471784 1470004 1470474 
3327.868 1472302 1474286 1475614 1475883 1475462 1475085 1475544 1477207 
3331.725 1479829 1482754 1485278 1487055 1488330 1489907 1492700 1497137 
3335.583 1503070 1509631 1515736 1520759 1524957 1529369 1535570 1544658 
3339.440 1556702 1570058 1581842 1588774 1588197 1579113 1562584 1541618 
3343.297 1520112 1501928 1489909 1485287 1487785 1496018 1507850 1521120 
3347.155 1533689 1543898 1550376 1552326 1549488 1542432 1532469 1521348 
3351.012 1511021 1502947 1498013 1496164 1496671 1498446 1500380 1501640 
3354.870 1501777 1500589 1498120 1494526 1490258 1485999 1482841 1481885 
3358.727 1484313 1490552 1500280 1512104 1524112 1534121 1540452 1542384 
3362.584 1540219 1535012 1528171 1520878 1513775 1507075 1500689 1494674 
3366.442 1489536 1485929 1484564 1485554 1488168 1490975 1492000 1489687 
3370.299 1483448 1474037 1463248 1453427 1446503 1443211 1442955 1443985 
3374.157 1444192 1442219 1437840 1432263 1427543 1425679 1427804 1433680 
3378.014 1441717 1449587 1455131 1456967 1455105 1450415 1444434 1438474 
3381.872 1433384 1429220 1425598 1421999 1418149 1413981 1409642 1405313 
3385.729 1401040 1396754 1392592 1388723 1385782 1384518 1385304 1388233 
3389.586 1392603 1397234 1400960 1402951 1403253 1402579 1402018 1402410 
3393.444 1404164 1406907 1409820 1412258 1414185 1416316 1419835 1425821 
3397.301 1434536 1445050 1455340 1462882 1465638 1462558 1454175 1442139 
3401.159 1428780 1416238 1405855 1398190 1393141 1390367 1389665 1391092 
3405.016 1394660 1400108 1406708 1413209 1418366 1421337 1422188 1421910 
3408.874 1422202 1424684 1430543 1439862 1451727 1464500 1476386 1485901 
3412.731 1492164 1494796 1493842 1489426 1481865 1471584 1459425 1446648 
3416.588 1434861 1425553 1419616 1416980 1416563 1416637 1415532 1412369 
3420.446 1407603 1402870 1400596 1402865 1410686 1423444 1438761 1453339 
3424.303 1463878 1468084 1465368 1456829 1444872 1432327 1421638 1414305 
3428.161 1410961 1411401 1415154 1421743 1430870 1442145 1454883 1467946 
3432.018 1479602 1488091 1491999 1490888 1485501 1477653 1469781 1464217 
3435.875 1462572 1465295 1471675 1480048 1488412 1494938 1498151 1497325 
3439.733 1492332 1483619 1472141 1459142 1446312 1435368 1427888 1424910 
3443.590 1426699 1432440 1440418 1448376 1454100 1456217 1454553 1450294 
3447.448 1445860 1444009 1447199 1456609 1471942 1491218 1511460 1529469 
3451.305 1542679 1549909 1551443 1548804 1544223 1539618 1536052 1533538 
3455.163 1531300 1528171 1523514 1517572 1511432 1506898 1505627 1508476 
3459.020 1515204 1524365 1533888 1541678 1546422 1548028 1547490 1546628 
3462.877 1547469 1551522 1559542 1571102 1584998 1599397 1612340 1622361 
3466.735 1628485 1630837 1630483 1629258 1629321 1632627 1640059 1651306 
3470.592 1664626 1677346 1686605 1690398 1688260 1681548 1673146 1666780 
3474.450 1665614 1671713 1685288 1704750 1727540 1750677 1771808 1789636 
3478.307 1803983 1815513 1825378 1834500 1843368 1852040 1860190 1867431 
3482.165 1873565 1878907 1884215 1890517 1898868 1910003 1923972 1940275 
3486.022 1957776 1975214 1991559 2006434 2020156 2033566 2047719 2063294 
3489.879 2080412 2098462 2116484 2133551 2149299 2164031 2178663 2194228 
3493.737 2211326 2229758 2248596 2266372 2281874 2294489 2304521 2313061 
3497.594 2321299 2330186 2339842 2349489 2357879 2363786 2366585 2366617 
3501.452 2365046 2363521 2363682 2366530 2372267 2380199 2388982 2396861 
3505.309 2402228 2403703 2400493 2392420 2380131 2364771 2347979 2331398 
3509.167 2316478 2303975 2293985 2285928 2278886 2271901 2264323 2256071 
3513.024 2247557 2239312 2232070 2226374 2222497 2220544 2220388 2221638 
3516.881 2223764 2225866 2226691 2224714 2218525 2206892 2189449 2166525 
3520.739 2139541 2110533 2081970 2056174 2035129 2019912 2010512 2005937 
3524.596 2004283 2003066 1999896 1993010 1981599 1966163 1948119 1929480 
3528.454 1912070 1897084 1884853 1875012 1866873 1860023 1854617 1851103 
3532.311 1849982 1851242 1853876 1856108 1855792 1851174 1841587 1827838 
3536.168 1811833 1795885 1782068 1771355 1763723 1758342 1754371 1751087 
3540.026 1748455 1746439 1744873 1742891 1739177 1732517 1722567 1710515 
3543.883 1699089 1691805 1691572 1699509 1713936 1730815 1744693 1750791 
3547.741 1746439 1732125 1711339 1689053 1670295 1658299 1653816 1655349 
3551.598 1660283 1665993 1671050 1675465 1680299 1686633 1694852 1704179 
3555.456 1712737 1718306 1719266 1715114 1706837 1696342 1686047 1678051 
3559.313 1673545 1672818 1675144 1679354 1684197 1688374 1690989 1691266 
3563.170 1688797 1683451 1675454 1665438 1654488 1643859 1634875 1628540 
3567.028 1625356 1625194 1627205 1630185 1632819 1634068 1633547 1631592 
3570.885 1629027 1627047 1626752 1628443 1631761 1635307 1637287 1635868 
3574.743 1629889 1619480 1605944 1591855 1580325 1574193 1575519 1584869 
3578.600 1601397 1622665 1645391 1665777 1680283 1686122 1681731 1666914 
3582.458 1642966 1612358 1578402 1544541 1513831 1488634 1470235 1458908 
3586.315 1454102 1454562 1458728 1464696 1470617 1474512 1475034 1471378 
3590.172 1463663 1452896 1440770 1429050 1419009 1411080 1404722 1398784 
3594.030 1392472 1385702 1379783 1376903 1379564 1389222 1405665 1426481 
3597.887 1447713 1464694 1473881 1473477 1464356 1449357 1432550 1417764 
3601.745 1407730 1403318 1404060 1408332 1414460 1421132 1427818 1434421 
3605.602 1441172 1448214 1455342 1462147 1468001 1472420 1475006 1475650 
3609.459 1474314 1471058 1465942 1459146 1451044 1442143 1433193 1424904 
3613.317 1418076 1413227 1410491 1409894 1411158 1414102 1418679 1424962 
3617.174 1433267 1443921 1457108 1472513 1489607 1507349 1524709 1540938 
3621.032 1555767 1569680 1583634 1598575 1615232 1633338 1651779 1668588 
3624.889 1681761 1689670 1691728 1688516 1681441 1672385 1663023 1654437 
3628.747 1647294 1641887 1638642 1638240 1641752 1649884 1662821 1679741 
3632.604 1698686 1717333 1733505 1745702 1753714 1758282 1760781 1762476 
3636.461 1764294 1766575 1769661 1774052 1780760 1791190 1806562 1827381 
3640.319 1852844 1880907 1908591 1933087 1952400 1965978 1974696 1980372 
3644.176 1984913 1989896 1995919 2002874 2010357 2017990 2025685 2033506 
3648.034 2041451 2049018 2055058 2058086 2056838 2050690 2040398 2027691 
3651.891 2015202 2005664 2001149 2002749 2010357 2023056 2039341 2057717 
3655.749 2076959 2096184 2114728 2132027 2147330 2159837 2168662 2173053 
3659.606 2172405 2166593 2155839 2140693 2122152 2101468 2080118 2059539 
3663.463 2040987 2025136 2011926 2000510 1989484 1977140 1962163 1944194 
3667.321 1923960 1903416 1885057 1871247 1863572 1862106 1865181 1869930 
3671.178 1872735 1870372 1860449 1842204 1816398 1785100 1751302 1718252 
3675.036 1688942 1665696 1649657 1640816 1637978 1639055 1641732 1643930 
3678.893 1643949 1641097 1635412 1627274 1617237 1605610 1592501 1577911 
3682.750 1562112 1545965 1530764 1517914 1508463 1502535 1499108 1496493 
3686.608 1493003 1487686 1481025 1474645 1470854 1471589 1477271 1486879 
3690.465 1497959 1507696 1514153 1516981 1517327 1517179 1518193 1520676 
3694.323 1523223 1523014 1517094 1503622 1482755 1456683 1429137 1403986 
3698.180 1384035 1370410 1362332 1357936 1355220 1352676 1349712 1346672 
3702.038 1344201 1342755 1342336 1342412 1342339 1341648 1340188 1338320 
3705.895 1336835 1336502 1337914 1341283 1346524 1353093 1360171 1366854 
3709.752 1372164 1375355 1376290 1375129 1372790 1370426 1369189 1369926 
3713.610 1372809 1377380 1382822 1388241 1393052 1397120 1400618 1403793 
3717.467 1406845 1409513 1411324 1411606 1409887 1406029 1400256 1393176 
3721.325 1385559 1378077 1371253 1365585 1361520 1359506 1360105 1363778 
3725.182 1370440 1379618 1390056 1399937 1407293 1410303 1408081 1400874 
3729.040 1390338 1379339 1371378 1369786 1376757 1392783 1416086 1443167 
3732.897 1469672 1491369 1505708 1512034 1511980 1508440 1504699 1503357 
3736.754 1505550 1510781 1517401 1523397 1526995 1527067 1523374 1516216 
3740.612 1506191 1494151 1481195 1468649 1458041 1450684 1447342 1447466 
3744.469 1449317 1450167 1447274 1438983 1425569 1409373 1394276 1384550 
3748.327 1383450 1392071 1408889 1430200 1451255 1467642 1476459 1476887 
3752.184 1470403 1459728 1448210 1438898 1434001 1434536 1440469 1450998 
3756.042 1464607 1479463 1493848 1506113 1515116 1520212 1521413 1519169 
3759.899 1513995 1506581 1497280 1486342 1473918 1460221 1445629 1430808 
3763.756 1416702 1404354 1394759 1388660 1386510 1388462 1394328 1403684 
3767.614 1416114 1430903 1447096 1463471 1478289 1489507 1495030 1493141 
3771.471 1482979 1465124 1441542 1415561 1391078 1371585 1359567 1355667 
3775.329 1358716 1366294 1375199 1382756 1387098 1387552 1384245 1378072 
3779.186 1369889 1360707 1351485 1343297 1337482 1335480 1338543 1347268 
3783.043 1361366 1379451 1399451 1418827 1435263 1447098 1453559 1454630 
3786.901 1451170 1444456 1436208 1428085 1421556 1417456 1415838 1415790 
3790.758 1415742 1414060 1409362 1401520 1391332 1380457 1370607 1362733 
3794.616 1356923 1352012 1346528 1339358 1330449 1320954 1312815 1307921 
3798.473 1307339 1310676 1316616 1323179 1328881 1333277 1337090 1341907 
3802.331 1349216 1359841 1373354 1388397 1403153 1415828 1425443 1431589 
3806.188 1434517 1434699 1432540 1428306 1422314 1414807 1406357 1397459 
3810.045 1388636 1380193 1372244 1364995 1358800 1354477 1352916 1355023 
3813.903 1361131 1370503 1381726 1392685 1401454 1406821 1408810 1408694 
3817.760 1408362 1409765 1414396 1422717 1434155 1447346 1460528 1471850 
3821.618 1479726 1483119 1481620 1475481 1465647 1453293 1439851 1426457 
3825.475 1413956 1402578 1392296 1382985 1374759 1368027 1363416 1361350 
3829.333 1361905 1364341 1367571 1370225 1371204 1370148 1367248 1363310 
3833.190 1358923 1354574 1350147 1345488 1340559 1335847 1332427 1331467 
3837.047 1333954 1340094 1349185 1359867 1370644 1380551 1389383 1397628 
3840.905 1405875 1414485 1422878 1429977 1434369 1434883 1431196 1424002 
3844.762 1414661 1404792 1395691 1388195 1382612 1378903 1376943 1376652 
3848.620 1377776 1379762 1381619 1382153 1380358 1375899 1369433 1362527 
3852.477 1357088 1354761 1356076 1360493 1366431 1372191 1376484 1379116 
3856.334 1380847 1382643 1385290 1388711 1391836 1393158 1391256 1385627 
3860.192 1377032 1367080 1357759 1350577 1346089 1343444 1341122 1337393 
3864.049 1331120 1322343 1312338 1303183 1297175 1295994 1300378 1309605 
3867.907 1321858 1334708 1345689 1352939 1355809 1355034 1352423 1350588 
3871.764 1351984 1358335 1370029 1385894 1403433 1419347 1430541 1434630 
3875.622 1431014 1420650 1406100 1390797 1378224 1371051 1370353 1375641 
3879.479 1384715 1394634 1402521 1406390 1405670 1401397 1395566 1390291 
3883.336 1387065 1386005 1385891 1384753 1380707 1372856 1361916 1350038 
3887.194 1340197 1335209 1336777 1344955 1358149 1373804 1389112 1401722 
3891.051 1410476 1415071 1415896 1413653 1408912 1402010 1393312 1383364 
3894.909 1373101 1363682 1356525 1352490 1352007 1354569 1359149 1364408 
3898.766 1369083 1372365 1374032 1374150 1373160 1371454 1369121 1366227 
3902.624 1362851 1359317 1356187 1354333 1354553 1357446 1362792 1369757 
3906.481 1376959 1382923 1386487 1387415 1386203 1384297 1383045 1383529 
3910.338 1385789 1388900 1391383 1391672 1389152 1384239 1378606 1374488 
3914.196 1373925 1377795 1385497 1394954 1403368 1407976 1407037 1400352 
3918.053 1389243 1375959 1363065 1352709 1346225 1343890 1345443 1350192 
3921.911 1357248 1365864 1375164 1384034 1391268 1395372 1395019 1389382 
3925.768 1378394 1363103 1345488 1328487 1315313 1308996 1311648 1324154 
3929.625 1345613 1373590 1404376 1433664 1457380 1472354 1476898 1471073 
3933.483 1456557 1436283 1413666 1392217 1374708 1363007 1357521 1357464 
3937.340 1360983 1365502 1368550 1368270 1364202 1357224 1349522 1343963 
3941.198 1343087 1348398 1359872 1375668 1392852 1407894 1417988 1421310 
3945.055 1417557 1407739 1393742 1377804 1362062 1348242 1337663 1331010 
3948.913 1328694 1330649 1336272 1344653 1354619 1364972 1374654 1383124 
3952.770 1390145 1395966 1400917 1405354 1409475 1413439 1417338 1421304 
3956.627 1425561 1430269 1435481 1440919 1446068 1450291 1453061 1454138 
3960.485 1453772 1452692 1451810 1451960 1453726 1457133 1461694 1466534 
3964.342 1470832 1473701 1474662 1473675 1471111 1467684 1464257 1461664 
3968.200 1460515 1461117 1463151 1465982 1468575 1469881 1469130 1465871 
3972.057 1460369 1453286 1445657 1438518 1432731 1428683 1426479 1425736 
3975.915 1426055 1426972 1428101 1429165 1429936 1430189 1429791 1428648 
3979.772 1427013 1425550 1425298 1427572 1433664 1444294 1459372 1477636 
3983.629 1496851 1514103 1526419 1531599 1528494 1517620 1500843 1481079 
3987.487 1461658 1445606 1435188 1431431 1434282 1442693 1454986 1469056 
3991.344 1482757 1494209 1501767 1504364 1501463 1493342 1481003 1466178 
3995.202 1451191 1438391 1429888 1427016 1430046 1438151 1449330 1461168 
3999.059 1471151 1477262 1478443 1474544 
##END=
