##TITLE=Tecor_ABS_White_Filament_r2_ATR-Corrected
##JCAMP-DX=5.01  $$ Nicolet v. 1
##DATATYPE=INFRARED SPECTRUM
##ORIGIN=Curtin University
##OWNER=Nicolet
##LONGDATE=2024/07/19
##TIME=16:23:13
##SPECTROMETER/DATA SYSTEM=Nicolet iS50
##DATA PROCESSING=
Ratio against background
%Transmittance->Absorbance
ATR Correction
Truncated
ElementMultiply or ElementDivide
##COMMENTS=
Number of sample scans: 32
Collection length: 47.27 sec
Sample gain: 1.0
Background collected on: Fri Jul 19 16:21:54 2024 (GMT+08:00);
Number of background scans: 32
Background gain: 1.0
Sample spacing:  1.000
Number of scan points: 16672
Resolution points: 8192
Number of FFT points: 65536
Apodization: N-B strong;
Phase correction: Mertz;
Laser frequency: 15798.3 cm-1
Number of rejected sample scans: 0
Number of rejected background scans: 0
Bench serial number: AUP1200105;
##RESOLUTION=4.000
##XUNITS=1/CM
##YUNITS=ABSORBANCE
##FIRSTX=400.163452
##LASTX=4000.187744
##FIRSTY=0.012860
##MAXX=4000.187744
##MINX=400.163452
##MAXY=0.462810
##MINY=-0.010611
##XFACTOR=1.000000
##YFACTOR=1.000000E-009
##NPOINTS=7468
##DELTAX=0.482125
##ZPD=8192
##XYDATA=(X++(Y..Y))
400.163 12859949 12268357 11628503 11048397 10604257 10324708 10198657 
403.538 10196217 10293563 10490081 10805856 11263463 11863675 12566673 
406.913 13289714 13924636 14369026 14556486 14478114 14184448 13769387 
410.288 13343944 13005388 12816935 12798884 12933339 13173619 13457740 
413.663 13719877 13901536 13960084 13877076 13661191 13347089 12984292 
417.038 12623001 12299057 12023482 11782436 11548777 11298598 11028436 
420.412 10763456 10552757 10453203 10509835 10736790 11110851 11575208 
423.787 12054377 12473804 12775539 12929045 12933554 12811926 12603048 
427.162 12352011 12102720 11890754 11739017 11654894 11630546 11645498 
430.537 11674527 11696585 11701968 11697022 11700571 11736671 11823558 
433.912 11965123 12147812 12343874 12520356 12648772 12713112 12712767 
437.286 12659865 12573487 12473033 12374064 12286950 12217202 12166223 
440.661 12131505 12106162 12078615 12034103 11959328 11848317 11707252 
444.036 11556697 11427927 11355123 11363921 11462474 11636211 11850834 
447.411 12060517 12221389 12304065 12302753 12237707 12149526 12087921 
450.786 12097527 12205201 12411665 12692041 13002675 13292897 13520408 
454.161 13661482 13717475 13712626 13684441 13671460 13700322 13777455 
457.535 13887495 13999144 14075666 14086926 14018756 13877396 13687939 
460.910 13486960 13313592 13198652 13157904 13188164 13268681 13368113 
464.285 13452475 13495108 13483251 13420792 13327005 13230213 13159161 
467.660 13135461 13168696 13255778 13384315 13538740 13705079 13873689 
471.035 14038512 14193906 14332729 14444820 14519394 14548702 14531884 
474.409 14476118 14394650 14301926 14208971 14119708 14031158 13937232 
477.784 13833126 13718928 13600385 13486402 13385259 13301493 13235773 
481.159 13187094 13156915 13151816 13182865 13261138 13391784 13568301 
484.534 13771441 13972570 14141398 14254685 14301778 14286311 14222094 
487.909 14126537 14014796 13896204 13775704 13656991 13545967 13452333 
491.284 13387349 13358783 13367123 13403518 13451904 13494598 13518955 
494.658 13521148 13508139 13493975 13494781 13523102 13584618 13677887 
498.033 13795100 13925636 14057955 14181370 14286598 14366956 14419953 
501.408 14448727 14462384 14474963 14501426 14552886 14632033 14732824 
504.783 14842837 14949608 15047055 15139930 15243274 15376826 15556479 
508.158 15786694 16057212 16345721 16626216 16879040 17098578 17295694 
511.532 17493078 17716278 17984356 18303472 18666016 19056526 19459330 
514.907 19865514 20276458 20701528 21152646 21637914 22157422 22703228 
518.282 23263554 23828252 24393564 24963548 25547958 26157314 26797908 
521.657 27468632 28161842 28865828 29569626 30265818 30952172 31629502 
525.032 32299094 32959700 33606820 34234068 34836684 35414448 35974452 
528.406 36530560 37101036 37704412 38355496 39061428 39820148 40620508 
531.781 41444216 42269592 43075140 43844128 44567988 45247344 45891728 
535.156 46515584 47133384 47753560 48374384 48983108 49559104 50080020 
538.531 50529396 50902088 51206064 51459384 51683188 51894372 52099824 
541.906 52295000 52467172 52601468 52686664 52719408 52703096 52644180 
545.281 52547156 52410780 52228840 51993864 51703776 51366724 51002468 
548.655 50638628 50303120 50015380 49779932 49584292 49403960 49209488 
552.030 48975348 48686356 48340244 47944832 47514304 47063996 46607172 
555.405 46154452 45714228 45292640 44894380 44520696 44168056 43827956 
558.780 43488436 43137624 42768400 42381780 41986860 41598584 41232576 
562.155 40899588 40602044 40334136 40083748 39837608 39584708 39319308 
565.529 39039832 38747144 38442228 38124444 37791436 37440820 37071684 
568.904 36685464 36285708 35876436 35461356 35042748 34622436 34202736 
572.279 33787104 33380144 32985140 32602098 32225776 31845670 31448324 
575.654 31021908 30560482 30067084 29553754 29039068 28542774 28081808 
579.029 27666058 27297768 26972252 26680352 26410634 26151522 25892476 
582.404 25625024 25343506 25046418 24736470 24420656 24107574 23805192 
585.778 23517456 23243566 22978196 22714630 22448414 22180446 21916684 
589.153 21666008 21436348 21230786 21046272 20876086 20714346 20560960 
592.528 20424094 20318492 20258694 20251778 20290198 20350564 20398330 
595.903 20397628 20322424 20165452 19941044 19680156 19420210 19194012 
599.278 19020240 18900202 18820102 18758802 18695974 18619108 18526256 
602.652 18424964 18328038 18248534 18195544 18171742 18173364 18191396 
606.027 18214250 18230228 18230230 18209814 18170570 18119728 18068708 
609.402 18030182 18014156 18025346 18061964 18116426 18178422 18238438 
612.777 18290792 18334822 18373726 18412516 18455692 18506036 18564706 
616.152 18633128 18714324 18813502 18935764 19083962 19254408 19435374 
619.527 19606922 19744926 19826218 19834646 19765134 19625276 19432946 
622.901 19211688 18984814 18770636 18578872 18410456 18259320 18115956 
626.276 17971072 17818966 17658412 17492776 17327896 17169732 17022056 
629.651 16885622 16758915 16639415 16526198 16420711 16326828 16248940 
633.026 16189279 16146023 16112847 16080683 16041700 15992803 15938321 
636.401 15889045 15858620 15858058 15890555 15948892 16017035 16074996 
639.775 16105585 16100390 16061949 16002938 15940508 15890483 15862064 
643.150 15856506 15869003 15893292 15926572 15972247 16039554 16139809 
646.525 16281065 16463663 16678059 16906620 17127666 17321770 17476268 
649.900 17588188 17662918 17712012 17747876 17780652 17816106 17856688 
653.275 17903696 17960568 18034902 18138630 18285626 18488218 18752182 
656.650 19074906 19444242 19841234 20244806 20636650 21006112 21351928 
660.024 21681576 22008344 22346924 22709286 23101804 23524730 23973192 
663.399 24439942 24917952 25403176 25895558 26398992 26920314 27466830 
666.774 28044002 28652750 29288080 29938790 30589096 31222242 31824142 
670.149 32387834 32915518 33419088 33917032 34430832 34979816 35577892 
673.524 36231476 36940056 37698056 38497500 39329316 40184888 41055964 
676.898 41935332 42817380 43700408 44587988 45490916 46426272 47415616 
680.273 48480900 49640512 50906836 52285688 53778512 55385700 57110892 
683.648 58964132 60963364 63135356 65515100 68146216 71081304 74382920 
687.023 78124944 82393776 87290744 92935160 99469936 107069280 115944824 
690.398 126351448 138583296 152961888 169810992 189417920 211983200 
693.290 237557488 265968528 296738880 329007168 361471584 392402272 
696.183 419776000 441569728 456179488 462810240 461646080 453710496 
699.076 440507360 423635072 404511872 384251648 363648768 343224480 
701.969 323292672 304024128 285500736 267753488 250787408 234593040 
704.861 219150176 204428080 190386448 176978976 164159984 151892032 
707.754 140153520 128941120 118269240 108165808 98665736 89803768 81609808 
711.129 74103520 67292368 61169888 55716036 50898552 46675268 42998080 
714.504 39816756 37082592 34750852 32781396 31137694 29784970 28688022 
717.878 27810500 27115644 26568584 26139632 25806284 25553938 25374540 
721.253 25263092 25214074 25218772 25265268 25339838 25430120 25528270 
724.628 25632430 25746120 25876022 26028950 26210208 26423358 26672004 
728.003 26962836 27307472 27722924 28228746 28843228 29578462 30437572 
731.378 31414382 32496360 33669224 34922112 36249900 37653444 39136516 
734.752 40701124 42342912 44048748 45797596 47563644 49320760 51047940 
738.127 52732084 54369192 55963160 57523732 59064068 60599380 62146308 
741.502 63724712 65356820 67068012 68884272 70829616 72922864 75174440 
744.877 77585616 80149448 82853144 85682432 88623960 91667640 94806728 
748.252 98037000 101354680 104755976 108236584 111792976 115422448 119123024 
751.627 122891544 126719968 130590960 134475232 138330176 142101856 
754.519 145728480 149145760 152290912 155105024 157534400 159530064 
757.412 161048128 162051584 162512832 162416704 161763712 160569840 
760.305 158865088 156689696 154090688 151118272 147824688 144264000 
763.197 140492176 136566368 132542816 128472984 124399864 120354576 
766.090 116356344 112414632 108533400 104716616 100971824 97311528 93751808 
769.465 90308512 86993184 83809360 80752360 77810272 74967904 72210432 
772.840 69526584 66910496 64360628 61878584 59467028 57127528 54861064 
776.214 52667724 50548680 48507832 46552064 44690308 42931408 41281644 
779.589 39741480 38304884 36959940 35691684 34486072 33333630 32231826 
782.964 31184680 30199724 29284220 28440870 27666010 26949398 26277392 
786.339 25636064 25015052 24408482 23814760 23234534 22669140 22119216 
789.714 21585890 21072226 20585068 20134968 19734256 19393514 19117582 
793.089 18902498 18735396 18596570 18463886 18317388 18143240 17935716 
796.463 17697732 17439018 17174272 16920574 16694378 16508084 16367586 
799.838 16270099 16203854 16150346 16089212 16003557 15885398 15737776 
803.213 15573810 15411587 15268084 15153927 15070522 15011025 14964725 
806.588 14920766 14871978 14815318 14750216 14675880 14590062 14489232 
809.963 14371615 14240048 14103955 13978014 13878912 13818650 13800970 
813.337 13819077 13857187 13895506 13915950 13906428 13862761 13787571 
816.712 13687614 13571015 13445958 13320540 13203881 13106326 13038815 
820.087 13010125 13024065 13077178 13158650 13252153 13340006 13406563 
823.462 13441952 13442256 13408885 13346587 13261748 13161207 13052620 
826.837 12945330 12850273 12779367 12743844 12751263 12803659 12896292 
830.212 13018247 13155014 13292635 13421245 13538586 13651069 13773199 
833.586 13923310 14119871 14375669 14694406 15069323 15485320 15922664 
836.961 16362516 16790588 17199222 17586354 17952772 18298328 18620450 
840.336 18913928 19173892 19398414 19590458 19757238 19907422 20046400 
843.711 20172600 20277414 20347390 20368944 20334452 20245312 20111432 
847.086 19948314 19771626 19593074 19417834 19245268 19071460 18891696 
850.460 18702326 18500774 18284070 18048698 17791546 17511714 17213560 
853.835 16907290 16607268 16328221 16079528 15861647 15665840 15477372 
857.210 15281715 15071055 14848080 14624316 14416411 14239280 14100355 
860.585 13997702 13921616 13859279 13799550 13735993 13667593 13596039 
863.960 13523639 13450847 13377411 13303461 13232526 13172046 13131638 
867.335 13120518 13143324 13197909 13275779 13364661 13452906 13532501 
870.709 13601089 13660871 13716256 13770949 13826241 13880932 13932346 
874.084 13977802 14015700 14045417 14066612 14078937 14081774 14076070 
877.459 14064773 14054270 14052778 14068861 14107416 14167339 14241156 
880.834 14316486 14379865 14421377 14437883 14434929 14424824 14422600 
884.209 14442272 14492244 14574375 14683793 14811835 14949154 15089371 
887.583 15230146 15374145 15526520 15693156 15877284 16077677 16288674 
890.958 16501354 16706128 16896582 17071864 17238610 17409494 17601850 
894.333 17833638 18120964 18475320 18902980 19405692 19981870 20628280 
897.708 21341660 22120178 22964756 23880324 24876866 25969792 27179256 
901.083 28526788 30031970 31708102 33558328 35574308 37737336 40021256 
904.458 42396132 44830868 47294164 49753316 52171668 54505856 56705976 
907.832 58717456 60485328 61959528 63100032 63880332 64288004 64324184 
911.207 64001776 63343792 62381128 61151440 59697048 58062828 56293468 
914.582 54430324 52508788 50556980 48595472 46638280 44695912 42777216 
917.957 40892496 39054120 37277180 35577884 33972052 32472174 31085950 
921.332 29815534 28657564 27604722 26647738 25777064 24984478 24263190 
924.706 23607462 23011676 22470308 21977416 21528420 21120646 20754198 
928.081 20431924 20158002 19935732 19765328 19642532 19558698 19502040 
931.456 19460774 19425068 19389580 19353658 19321134 19298430 19293070 
934.831 19311374 19358550 19437314 19548388 19690470 19861132 20056110 
938.206 20270444 20498466 20733866 20970376 21201734 21422982 21631312 
941.581 21826842 22014342 22202596 22403910 22631176 22894226 23197000 
944.955 23535158 23896918 24266284 24627400 24970600 25295034 25610100 
948.330 25933294 26286356 26690346 27162958 27717694 28364002 29110296 
951.705 29965078 30938252 32040902 33283874 34677160 36230040 37951604 
955.080 39853012 41947404 44250552 46778688 49545584 52560360 55824372 
958.455 59330656 63062428 66993988 71088952 75300248 79568448 83822680 
961.829 87981624 91957792 95662056 99009728 101925128 104346088 106226032 
965.204 107536480 108267224 108427032 108041008 107147944 105795704 
968.097 104035560 101918240 99491192 96798416 93883368 90790984 87570448 
971.472 84274728 80959048 77675616 74469656 71375688 68416184 65603248 
974.847 62941724 60432968 58077680 55877256 53833104 51945312 50211704 
978.221 48626936 47183996 45875260 44695088 43639796 42707892 41897528 
981.596 41205284 40622736 40136348 39727520 39374660 39056408 38755384 
984.971 38461268 38173480 37900776 37659960 37471440 37355052 37323940 
988.346 37382272 37522380 37727204 37973700 38237324 38497016 38737240 
991.721 38947576 39120744 39248648 39319976 39319016 39228696 39034204 
995.095 38729188 38320356 37829720 37293492 36757496 36270148 35875396 
998.470 35605028 35475068 35482916 35608808 35818444 36068264 36310720 
1001.845 36501592 36605352 36599356 36476832 36246028 35927516 35549428 
1005.220 35141972 34732424 34342796 33988052 33676908 33414050 33201120 
1008.595 33038110 32923118 32852024 32818046 32812596 32826916 32853984 
1011.970 32890786 32939032 33004384 33094306 33215382 33370878 33560196 
1015.344 33779524 34024020 34290460 34578480 34891364 35234828 35615328 
1018.719 36038740 36509624 37032200 37611544 38255100 38972752 39776580 
1022.094 40679300 41691112 42818912 44063880 45420432 46875532 48406140 
1025.469 49977980 51543552 53041676 54400576 55542732 56393404 56889380 
1028.844 56987384 56669348 55943148 54840148 53408868 51708920 49804072 
1032.219 47757664 45629816 43476156 41346880 39285948 37330632 35510000 
1035.595 33844584 32346026 31019052 29862150 28870016 28035298 27348292 
1038.970 26798412 26372362 26054124 25824752 25663216 25548102 25459638 
1042.345 25382602 25308032 25234126 25165822 25112274 25083770 25088460 
1045.720 25129658 25205110 25307686 25428012 25557022 25688632 25820420 
1049.096 25953230 26088872 26228536 26371518 26515070 26656526 26794658 
1052.471 26931646 27073378 27227338 27401786 27602232 27830380 28084138 
1055.846 28358596 28647974 28947810 29255476 29571028 29896130 30234002 
1059.221 30588904 30966154 31372604 31815734 32301824 32834488 33411990 
1062.597 34026308 34663132 35304672 35933148 36534848 37102996 37638452 
1065.972 38147844 38639988 39121016 39590940 40041348 40456136 40813800 
1069.347 41092304 41272780 41344096 41303780 41158456 40921576 40610524 
1072.722 40242632 39832720 39391424 38925128 38437640 37931664 37410508 
1076.098 36879180 36343312 35807952 35275316 34744412 34210852 33668532 
1079.473 33112482 32541614 31959392 31373746 30794804 30232248 29691970 
1082.848 29175014 28678368 28196436 27723752 27257270 26796980 26345946 
1086.223 25909178 25492006 25099658 24736608 24406896 24114060 23860504 
1089.599 23646216 23467858 23318442 23187886 23065066 22940078 22806580 
1092.974 22662968 22511248 22356030 22201668 22051174 21905040 21762164 
1096.349 21621138 21481362 21343628 21209804 21081600 20959636 20843642 
1099.724 20732096 20624126 20519094 20418406 20323930 20237306 20158892 
1103.100 20087390 20019570 19952268 19882428 19808336 19729604 19646852 
1106.475 19561280 19475028 19390936 19313736 19249622 19205184 19185304 
1109.850 19190696 19216148 19251304 19282268 19296346 19284998 19247392 
1113.225 19189678 19122048 19054478 18992544 18934436 18872586 18795776 
1116.601 18693720 18560364 18395544 18204098 17993442 17770394 17539992 
1119.976 17305114 17067452 16829634 16595762 16371375 16162388 15973264 
1123.351 15806314 15661268 15536559 15430273 15340694 15266096 15204070 
1126.726 15150465 15099550 15045050 14982875 14912362 14838051 14768508 
1130.102 14714115 14683454 14680832 14705246 14750897 14809420 14872601 
1133.477 14933708 14988936 15036347 15074882 15104286 15125021 15138974 
1136.852 15151029 15168414 15199878 15253848 15335889 15446940 15583665 
1140.227 15739491 15907153 16080787 16257590 16437605 16623659 16819182 
1143.603 17028500 17256202 17507952 17791328 18116030 18493062 18933926 
1146.978 19448474 20043952 20724232 21490158 22339796 23269478 24273708 
1150.353 25345390 26473888 27644658 28838140 30028680 31185266 32272306 
1153.728 33251636 34086496 34745032 35204084 35452836 35493644 35342100 
1157.104 35023436 34568608 34009788 33376892 32695516 31986970 31269490 
1160.479 30559616 29873480 29226676 28632946 28102472 27639966 27244596 
1163.854 26909938 26625532 26379350 26159844 25958060 25768380 25590000 
1167.229 25425570 25280978 25163888 25081300 25038406 25037050 25075436 
1170.604 25148522 25250174 25374274 25517078 25677508 25857074 26059018 
1173.980 26288020 26548982 26847198 27188900 27580762 28029752 28540670 
1177.355 29114588 29745630 30420598 31118144 31811226 32469482 33063590 
1180.730 33567648 33961584 34232076 34372756 34383428 34269316 34040528 
1184.105 33710556 33295814 32814148 32284010 31723406 31149392 30578666 
1187.481 30026804 29508656 29037148 28622402 28269732 27979992 27748438 
1190.856 27566952 27426164 27317188 27234170 27174750 27139026 27129524 
1194.231 27148700 27197746 27276288 27381374 27507152 27645346 27785050 
1197.606 27914006 28019784 28092172 28124898 28117834 28076764 28012022 
1200.982 27935612 27858424 27786306 27720184 27655816 27587074 27508020 
1204.357 27415826 27312008 27200888 27088436 26979574 26876702 26779280 
1207.732 26684366 26588802 26489122 26384200 26273570 26158566 26039700 
1211.107 25918146 25794248 25668420 25541506 25414650 25288474 25163662 
1214.483 25038944 24912598 24782288 24646002 24503052 24354492 24203320 
1217.858 24053338 23908472 23771896 23645842 23531422 23429566 23340880 
1221.233 23266336 23206798 23162570 23133066 23116032 23108968 23108664 
1224.608 23112978 23121018 23133596 23152710 23180958 23220430 23272254 
1227.984 23336098 23410836 23494906 23586846 23685458 23789962 23899368 
1231.359 24012328 24126330 24238256 24344550 24442344 24529398 24605302 
1234.734 24671158 24729088 24781698 24831008 24877770 24921560 24960744 
1238.109 24993026 25016048 25028062 25027988 25015428 24990196 24952098 
1241.485 24901006 24837248 24762186 24678758 24591264 24504962 24424554 
1244.860 24353324 24291674 24237832 24187960 24138612 24087802 24036474 
1248.235 23987658 23945682 23913786 23892032 23877532 23864700 23847948 
1251.610 23823734 23791868 23756328 23723054 23698126 23684240 23681106 
1254.986 23684080 23687618 23686762 23679508 23667152 23653262 23642044 
1258.361 23635828 23634518 23635950 23637106 23635472 23629638 23619608 
1261.736 23605022 23584218 23554184 23510664 23450504 23373866 23285412 
1265.111 23193844 23109740 23043080 22999648 22980260 22980682 22994070 
1268.487 23013764 23035928 23060468 23090552 23130394 23183746 23251500 
1271.862 23331700 23420458 23513424 23606900 23699840 23793306 23889660 
1275.237 23991654 24101288 24218832 24342846 24470106 24596730 24718688 
1278.612 24832912 24938058 25034956 25126028 25215176 25306178 25401832 
1281.988 25503426 25610314 25720900 25834028 25949476 26068866 26195226 
1285.363 26331436 26479022 26637122 26801896 26967996 27130180 27285754 
1288.738 27435146 27582710 27734990 27899132 28079662 28277518 28489712 
1292.113 28710646 28933444 29152726 29365152 29570348 29768836 29961552 
1295.489 30147846 30325580 30491800 30644736 30785230 30918090 31051564 
1298.864 31195800 31359412 31547412 31758838 31987362 32222886 32455094 
1302.239 32676444 32884716 33082676 33276756 33474006 33678884 33891460 
1305.614 34107416 34319044 34518376 34699356 34859968 35001776 35129736 
1308.990 35249400 35366172 35483032 35601052 35719444 35836876 35951620 
1312.365 36062760 36169984 36273552 36372976 36467640 36555188 36633084 
1315.740 36697592 36745644 36775016 36786204 36782248 36768936 36753356 
1319.115 36742428 36741076 36750812 36769604 36792592 36814840 36832428 
1322.490 36845440 36857236 36874556 36904544 36953072 37022888 37112664 
1325.866 37218148 37333004 37451088 37567160 37677876 37781248 37876616 
1329.241 37963028 38039616 38104820 38156784 38193120 38211576 38210088 
1332.616 38188072 38146260 38088324 38020292 37951268 37890648 37848496 
1335.991 37832016 37845808 37889912 37962048 38057324 38170804 38298024 
1339.367 38435688 38581944 38736224 38898084 39068220 39247200 39436156 
1342.742 39635820 39846296 40066376 40293156 40522612 40749816 40970504 
1346.117 41181128 41379784 41565692 41737976 41895576 42035752 42155580 
1349.492 42251656 42322520 42368944 42394700 42405888 42409944 42413608 
1352.868 42422128 42438252 42462532 42493284 42528148 42564140 42598548 
1356.243 42629108 42654076 42672368 42683756 42688660 42688476 42684980 
1359.618 42680068 42675400 42672208 42671044 42672196 42675808 42681556 
1362.993 42689180 42697920 42705920 42710916 42709724 42698896 42675268 
1366.369 42636272 42579888 42505064 42411300 42298744 42167956 42020992 
1369.744 41860476 41689552 41511548 41328504 41140224 40943980 40734120 
1373.119 40503500 40244176 39949640 39614996 39238016 38818316 38357256 
1376.494 37857332 37322024 36756012 36165772 35558940 34944032 34328424 
1379.870 33717828 33114250 32517738 31926386 31339026 30756384 30182678 
1383.245 29623772 29087628 28580358 28106340 27665920 27256648 26874366 
1386.620 26514346 26172152 25844072 25527128 25218812 24915964 24616990 
1389.995 24320598 24027744 23740628 23462276 23195986 22943618 22705464 
1393.371 22481278 22270148 22073128 21892658 21733302 21599994 21496528 
1396.746 21424076 21380444 21360668 21357816 21365232 21376674 21387260 
1400.121 21393330 21390940 21376572 21346842 21299578 21234578 21154806 
1403.496 21065166 20972634 20883710 20804418 20738616 20689202 20658220 
1406.872 20647462 20658974 20694614 20755234 20841830 20954532 21094210 
1410.247 21263902 21468258 21713120 22004052 22343882 22731910 23162980 
1413.622 23629338 24121348 24629432 25144768 25657686 26157114 26628504 
1416.997 27055170 27419350 27706326 27907944 28025322 28069348 28058446 
1420.373 28016162 27966906 27934654 27941122 28007012 28151876 28393726 
1423.748 28747940 29225954 29834318 30575770 31450268 32458056 33600152 
1427.123 34877932 36291152 37835772 39502048 41276124 43141584 45084240 
1430.498 47093112 49162748 51289256 53469408 55696924 57962940 60257388 
1433.874 62572800 64906216 67259608 69638576 72047744 74489064 76959872 
1437.249 79455856 81975496 84524968 87120976 89790224 92566584 95485608 
1440.624 98581048 101880240 105404184 109167552 113179616 117442904 
1443.517 121952600 126694696 131646272 136777392 142057104 147460416 
1446.410 152976848 158615616 164408896 170404880 176654704 183186288 
1449.303 189971216 196886080 203680192 209957568 215191728 218775200 
1452.196 220107536 218701376 214279648 206835072 196635872 184181008 
1455.089 170125568 155193200 140093632 125453488 111765424 99361472 88411408 
1458.465 78943880 70883296 64089684 58394008 53624148 49620364 46242232 
1461.840 43371720 40912260 38788300 36942484 35332264 33924800 32692488 
1465.215 31609106 30648262 29784002 28993394 28258806 27570036 26923538 
1468.590 26320532 25764238 25256698 24797342 24382918 24008472 23669826 
1471.966 23364224 23091698 22854316 22655554 22497850 22382112 22307658 
1475.341 22272792 22275920 22317180 22398392 22522952 22694678 22916046 
1478.716 23188164 23511248 23886742 24320750 24824960 25419268 26129926 
1482.091 26986660 28019382 29256922 30724620 32446946 34450052 36765736 
1485.467 39434376 42510636 46067572 50204252 55050144 60766976 67537944 
1488.842 75542952 84914520 95678888 107691408 120582024 133730712 146289664 
1492.217 157264256 165646000 170576496 171504032 168289440 161231712 
1495.110 151002880 138519008 124779952 110723712 97121416 84525904 73268248 
1498.485 63488400 55182648 48251884 42544480 37888168 34109556 31047380 
1501.861 28558520 26520702 24832878 23414666 22204396 21156884 20240850 
1505.236 19435522 18727904 18109256 17571520 17105950 16702065 16348427 
1508.611 16034609 15752804 15498643 15270998 15069766 14894073 14741669 
1511.986 14606771 14482626 14363083 14244204 14125372 14008278 13895691 
1515.362 13789152 13688101 13590074 13491436 13389669 13284774 13179571 
1518.737 13078934 12988416 12912327 12852633 12808830 12778052 12756144 
1522.112 12738849 12722981 12706638 12689666 12673452 12660935 12655152 
1525.487 12659154 12674801 12701645 12737270 12777561 12817876 12855116 
1528.863 12887836 12917529 12948011 12984355 13030807 13090638 13164275 
1532.238 13250241 13344660 13442986 13539569 13630255 13711769 13783576 
1535.613 13846965 13905929 13965712 14031931 14108858 14198387 14299955 
1538.988 14410405 14525265 14640681 14754152 14865044 14973828 15081541 
1542.364 15187087 15288163 15379687 15455515 15509354 15536984 15536486 
1545.739 15510096 15462981 15403617 15340968 15283530 15236869 15202617 
1549.114 15177794 15155473 15127465 15086879 15030609 14961114 14885798 
1552.489 14814438 14756083 14714738 14688047 14667287 14640090 14594600 
1555.865 14523116 14424887 14306217 14178589 14055175 13948148 13865164 
1559.240 13809605 13780279 13772879 13782148 13802400 13827944 13853608 
1562.615 13873893 13884359 13881875 13865422 13837529 13802950 13768351 
1565.990 13740662 13725192 13725287 13741220 13771741 13814210 13866995 
1569.365 13929418 14002982 14090247 14195158 14321201 14471065 14646593 
1572.741 14848631 15077226 15333599 15618983 15936639 16291777 16692081 
1576.116 17148166 17675472 18293706 19026836 19901068 20939708 22157046 
1579.491 23550936 25095788 26738998 28401690 29985478 31382948 32492746 
1582.866 33232562 33551306 33435244 32910154 32036942 30903782 29614274 
1586.242 28274554 26981708 25814664 24829002 24055770 23503916 23165316 
1589.617 23021268 23050040 23231254 23549892 23997690 24571904 25274868 
1592.992 26112628 27094402 28233366 29547676 31060090 32797404 34788172 
1596.367 37057380 39620864 42476432 45596564 48921460 52354584 55764096 
1599.743 58989536 61855380 64189784 65843692 66710220 66736208 65927564 
1603.118 64344540 62092936 59309192 56144644 52750824 49268868 45820516 
1606.493 42504632 39395148 36541464 33971004 31691614 29695956 27966582 
1609.868 26479316 25208878 24129530 23217036 22447732 21798730 21247824 
1613.244 20774768 20363014 20000678 19681392 19402946 19164820 18965416 
1616.619 18800172 18661054 18538058 18421726 18305506 18188190 18071978 
1619.994 17962322 17863408 17777614 17702850 17634274 17566050 17493432 
1623.369 17415046 17332976 17251528 17175228 17106392 17044746 16987486 
1626.745 16931572 16874906 16819316 16769776 16733132 16716639 16725127 
1630.120 16760217 16821214 16906382 17016524 17154112 17325000 17534964 
1633.495 17787612 18081198 18408420 18756946 19113464 19466296 19807910 
1636.870 20134924 20445190 20733864 20990558 21197922 21334266 21378386 
1640.246 21315234 21140712 20863486 20502232 20082184 19628514 19163244 
1643.621 18702032 18255658 17830594 17431840 17063064 16727479 16426748 
1646.996 16160961 15928164 15725946 15551686 15404386 15283710 15190066 
1650.371 15123016 15080065 15056866 15046955 15043017 15038122 15027015 
1653.747 15006667 14975952 14935588 14887366 14833626 14777396 14722478 
1657.122 14672630 14631835 14603516 14591165 14597032 14622988 14669504 
1660.497 14736204 14819741 14914742 15013405 15107072 15187750 15250411 
1663.872 15294583 15323742 15343787 15360856 15378721 15397215 15413404 
1667.248 15423338 15424072 15416220 15402774 15388695 15377544 15369100 
1670.623 15358213 15336745 15296030 15231812 15145439 15045782 14945513 
1673.998 14858954 14796021 14760126 14746362 14743863 14739092 14720766 
1677.373 14682411 14624348 14552190 14474776 14401522 14338846 14289932 
1680.749 14254454 14229289 14210815 14195736 14181843 14168222 14154079 
1684.124 14138566 14120704 14099188 14073902 14045639 14016960 13990884 
1687.499 13971062 13958978 13953900 13952637 13950345 13941032 13920348 
1690.874 13885036 13834517 13769805 13693348 13608458 13519981 13434036 
1694.250 13358057 13300276 13267403 13263110 13286394 13330868 13386246 
1697.625 13441659 13489024 13524037 13548287 13566012 13583400 13604698 
1701.000 13631117 13661914 13695196 13729991 13767736 13810560 13860545 
1704.375 13916425 13972743 14020111 14048784 14051315 14026642 13980741 
1707.750 13926341 13878427 13851139 13853026 13886026 13945709 14023281 
1711.126 14108354 14192094 14268659 14336015 14395775 14453776 14518761 
1714.501 14601222 14712075 14860574 15051358 15283626 15550707 15841916 
1717.876 16145613 16452448 16757652 17061574 17367302 17679560 18000300 
1721.251 18329178 18663174 18997848 19329986 19658754 19985322 20313026 
1724.627 20644402 20980566 21320708 21662540 22002060 22335548 22658686 
1728.002 22967374 23256918 23523378 23763636 23977526 24167018 24337642 
1731.377 24494462 24641204 24776416 24894100 24983068 25032004 25032608 
1734.752 24983178 24889454 24763886 24620384 24471714 24325248 24181876 
1738.128 24036374 23880530 23704298 23499406 23259916 22983570 22671146 
1741.503 22327362 21960078 21580234 21199960 20831724 20484656 20164266 
1744.878 19869064 19593214 19327286 19062194 18790226 18509130 18220628 
1748.253 17930002 17645676 17376004 17128870 16910260 16723851 16569933 
1751.629 16445318 16344026 16257517 16177736 16097439 16012657 15922075 
1755.004 15827775 15731532 15634181 15534467 15429485 15316143 15194314 
1758.379 15066853 14940770 14824026 14723106 14638969 14565795 14492049 
1761.754 14403755 14289365 14143637 13970248 13780561 13590163 13415475 
1765.130 13267865 13153766 13072656 13020437 12989870 12974237 12966754 
1768.505 12961530 12951891 12930916 12892393 12832141 12749010 12647645 
1771.880 12536033 12425867 12328907 12254767 12208478 12190774 12196835 
1775.255 12219928 12249848 12277151 12292146 12287585 12258363 12203510 
1778.631 12125998 12033185 11934464 11840550 11759595 11696097 11649107 
1782.006 11614439 11583769 11551106 11512184 11468085 11423603 11387318 
1785.381 11366922 11368732 11392463 11434108 11484613 11533641 11572054 
1788.756 11596107 11607115 11613554 11627701 11664136 11733850 11843442 
1792.132 11991033 12168473 12363911 12564089 12759289 12944843 13122253 
1795.507 13296405 13473654 13658666 13850909 14045782 14234439 14407215 
1798.882 14554488 14670462 14754118 14809377 14844901 14872783 14906941 
1802.257 14960594 15043566 15160758 15309717 15480543 15657291 15820989 
1805.633 15953235 16040862 16077952 16066784 16016360 15939258 15846532 
1809.008 15745999 15639553 15525480 15398636 15256142 15097694 14927567 
1812.383 14752797 14581031 14417781 14265245 14122325 13986455 13856536 
1815.758 13735688 13632734 13560050 13530144 13552358 13626801 13744513 
1819.134 13886837 14031962 14157537 14248619 14297671 14307292 14286616 
1822.509 14246928 14198362 14146456 14090277 14024223 13938635 13823344 
1825.884 13670832 13479858 13254488 13007398 12755577 12518412 12312145 
1829.259 12146256 12020133 11924065 11842241 11759087 11666229 11565940 
1832.635 11470600 11398324 11364963 11375779 11420021 11473600 11503392 
1836.010 11480739 11388819 11230932 11027809 10812410 10617016 10463420 
1839.385 10357310 10288144 10235068 10177334 10100913 10004994 9899334 
1842.760 9800801 9723492 9676632 9657702 9657629 9661824 9657230 9634682 
1846.618 9591932 9531450 9460288 9384570 9311235 9245059 9190689 9150801 
1850.475 9129311 9129146 9152620 9198694 9266031 9348184 9437970 9525757 
1854.333 9603278 9664237 9706876 9732923 9748711 9760770 9776634 9800231 
1858.190 9832813 9872580 9916672 9961722 10005924 10048278 10089217 10128804 
1862.047 10168598 10211977 10266443 10343828 10459045 10626597 10856388 
1865.423 11147955 11489373 11859094 12230425 12579053 12890593 13160068 
1868.798 13394263 13604835 13802839 13993615 14175888 14341888 14483759 
1872.173 14595665 14677189 14732978 14770526 14796836 14817534 14833933 
1875.548 14844392 14843905 14826129 14781238 14701233 14579327 14416385 
1878.924 14221845 14017433 13832542 13698977 13640513 13665687 13761571 
1882.299 13896903 14030420 14123014 14149617 14107569 14014237 13902887 
1885.674 13809284 13762608 13776996 13849829 13964304 14096863 14219831 
1889.049 14308101 14339147 14294759 14161635 13935358 13620394 13236142 
1892.425 12813664 12394246 12021487 11733105 11549571 11470700 11472282 
1895.800 11512908 11543487 11519530 11413842 11224865 10977644 10718582 
1899.175 10500574 10367725 10340649 10408443 10530631 10647856 10700095 
1902.550 10644443 10467877 10190179 9856122 9521331 9234055 9023574 8890208 
1906.408 8811439 8748984 8661468 8513817 8288838 7988454 7635927 7271435 
1910.265 6947065 6716600 6624394 6692916 6914470 7246074 7618597 7950505 
1914.123 8171966 8242702 8167241 7992929 7798058 7666965 7664278 7814526 
1917.980 8095705 8445691 8785076 9038035 9156513 9128835 8981091 8763431 
1921.837 8534782 8343072 8216802 8156763 8144520 8148943 8140939 8100660 
1925.695 8025384 7925593 7822736 7738269 7691411 7692625 7743625 7838201 
1929.552 7966587 8110746 8249445 8353598 8392009 8337080 8176025 7919813 
1933.410 7611256 7318107 7122185 7094932 7278690 7667930 8211779 8822390 
1937.267 9405832 9883943 10218371 10414365 10516943 10587563 10686021 
1940.642 10850253 11093508 11404502 11760783 12139197 12525217 12913432 
1944.018 13301097 13680748 14037950 14343811 14565245 14667802 14632055 
1947.393 14454639 14156805 13776514 13360980 12954366 12590498 12283513 
1950.768 12035029 11837894 11689221 11592105 11556535 11588385 11674061 
1954.143 11768125 11792503 11650131 11254498 10556885 9578399 8414232 
1957.519 7215964 6154965 5373100 4934629 4810805 4887289 5013014 5051760 
1961.376 4935342 4686975 4410848 4263945 4402292 4940950 5923633 7314451 
1965.233 9001254 10814629 12552619 14007269 15007091 15435769 15268794 
1968.609 14571965 13495638 12235964 11004113 9977257 9269338 8910554 8857080 
1972.466 9005781 9228849 9402765 9440900 9309943 9053885 8788126 8687365 
1976.323 8933535 9664289 10891231 12484661 14170576 15620967 16542876 
1979.699 16781306 16355729 15448825 14334783 13296524 12546905 12178182 
1983.074 12151689 12340628 12573053 12702750 12632487 12337280 11845878 
1986.449 11222156 10542539 9885842 9322600 8910739 8676375 8607243 8637764 
1990.307 8658240 8542089 8195949 7594898 6813663 6007160 5375304 5088318 
1994.164 5234844 5781351 6592662 7474878 8244636 8784201 9061819 9118983 
1998.021 9029603 8850012 8596991 8237643 7726163 7030235 6171803 5225743 
2001.879 4307389 3531971 2989364 2714921 2701456 2916428 3330165 3923874 
2005.736 4685154 5581319 6538651 7421833 8057825 8273263 7951948 7079055 
2009.594 5753023 4172305 2584339 1228332 287427 -145312 -60141 479998 
2013.451 1381664 2526239 3798874 5073164 6210971 7060621 7481311 7377968 
2017.309 6745020 5686315 4422771 3234557 2392673 2067328 2274355 2853697 
2021.166 3523789 3967053 3942223 3356973 2297438 987605 -289793 -1283939 
2025.023 -1843149 -1930844 -1596950 -919496 39086 1255701 2720948 4392004 
2028.881 6166126 7852332 9215957 10036760 10176013 9622916 8509517 7074665 
2032.738 5619237 4425734 3722437 3636556 4185889 5285512 6765161 8397737 
2036.596 9931666 11140777 11865298 12039898 11709380 11003563 10102756 
2039.971 9184481 8386491 7783585 7396715 7210945 7207530 7367831 7671081 
2043.828 8079329 8528920 8930151 9202538 9299018 9242499 9119015 9053941 
2047.686 9157449 9463048 9901078 10311915 10499369 10307215 9679526 8682033 
2051.543 7483370 6308697 5386691 4901533 4953036 5543862 6575821 7876130 
2055.401 9232475 10436850 11318217 11772844 11766692 11338470 10580056 
2058.776 9616647 8576880 7573005 6684495 5959197 5419705 5076944 4936801 
2062.633 5004202 5274387 5725799 6315589 6984969 7671931 8326233 8921787 
2066.491 9456361 9941568 10390187 10799710 11152983 11422619 11586539 
2069.866 11640160 11604167 11520967 11436068 11385826 11381522 11408932 
2073.241 11434960 11420294 11333656 11159289 10902268 10583754 10236960 
2076.616 9899322 9608392 9392888 9266439 9226356 9248678 9294537 9320576 
2080.474 9291605 9191574 9026167 8818850 8597624 8385126 8187623 8003380 
2084.331 7827166 7666509 7544334 7494582 7549496 7715928 7965761 8235531 
2088.189 8442930 8511310 8396246 8098736 7662548 7158645 6657583 6213362 
2092.046 5854539 5588466 5416103 5343250 5382796 5549072 5839582 6229364 
2095.904 6668947 7098302 7467462 7753257 7961858 8119604 8250295 8359721 
2099.761 8425044 8407596 8269394 8000231 7627376 7214205 6840338 6579094 
2103.618 6474323 6536188 6747138 7078274 7505262 8012958 8587949 9208481 
2107.476 9827669 10376276 10773338 10948893 10868787 10545643 10040205 
2110.851 9440832 8839458 8307541 7882979 7571130 7353327 7203729 7098981 
2114.708 7025053 6971713 6931843 6896831 6855372 6799693 6727523 6644935 
2118.566 6564225 6496000 6445216 6407566 6368982 6312266 6223258 6094657 
2122.423 5926097 5720405 5478995 5196917 4867956 4487603 4063876 3621201 
2126.281 3199252 2843601 2586164 2430247 2338824 2231672 2004504 1552361 
2130.138 809582 -229185 -1488215 -2821093 -4035350 -4932778 -5359935 
2133.513 -5239693 -4593982 -3533578 -2228831 -865672 397093 1452634 2252615 
2137.371 2796767 3112966 3235660 3202327 3043530 2791886 2483812 2152169 
2141.228 1819927 1495401 1171198 834100 484398 144544 -129638 -264005 
2145.086 -193081 122634 657228 1325614 1996205 2523668 2793944 2743095 
2148.943 2379167 1765531 1003191 196592 -562454 -1218508 -1752432 -2185271 
2152.801 -2583678 -3044389 -3680660 -4591056 -5820296 -7305066 -8845817 
2156.176 -10096286 -10610826 -9920700 -7669315 -3748043 1608122 7826729 
2159.551 14118544 19699936 23990872 26731782 27957862 27910008 26908842 
2162.926 25281244 23296526 21161572 19022034 16984722 15127124 13516723 
2166.302 12195314 11184685 10473948 10022910 9764950 9621708 9512546 9366970 
2170.159 9128853 8765028 8259304 7614062 6859581 6055528 5292782 4690391 
2174.016 4374494 4452842 4975997 5908654 7122118 8423963 9588997 10430093 
2177.874 10831933 10776951 10334986 9627042 8784379 7920241 7114894 6427019 
2181.731 5924368 5698854 5864042 6528034 7740061 9454047 11499469 13612336 
2185.589 15488867 16866386 17589974 17650398 17173876 16369797 15453871 
2188.964 14586522 13831972 13167514 12522495 11831919 11080937 10330293 
2192.339 9685284 9260345 9124437 9271758 9612870 10007678 10313850 10438861 
2196.197 10367003 10167038 9955408 9855619 9945058 10233910 10659416 
2199.572 11115159 11491339 11707284 11733619 11584680 11301180 10925448 
2202.947 10481435 9982480 9448387 8921364 8484391 8250520 8328994 8784710 
2206.804 9597184 10651745 11748944 12661033 13185975 13205181 12713913 
2210.180 11814259 10684474 9523934 8506668 7749564 7300262 7152177 7262431 
2214.037 7573532 8024770 8563112 9141189 9722683 10281467 10805016 11288707 
2217.895 11728590 12109837 12403817 12566148 12554943 12346704 11958865 
2221.270 11449313 10915691 10465417 10193540 10158606 10383156 10858076 
2224.645 11573525 12528027 13742192 15237236 17020654 19058096 21270282 
2228.020 23543622 25762078 27843820 29764546 31558208 33302576 35072724 
2231.396 36916744 38830536 40768892 42669800 44486280 46211752 47875992 
2234.771 49522176 51173164 52793688 54280616 55479844 56222948 56378996 
2238.146 55896032 54816360 53264508 51407132 49410660 47396328 45420104 
2241.521 43475040 41515596 39487336 37363676 35158672 32932826 30778660 
2244.896 28797254 27075020 25666048 24578276 23780232 23206502 22773812 
2248.272 22397602 22004694 21540160 20974354 20302604 19539580 18718514 
2251.647 17886548 17097380 16406650 15862834 15503558 15344822 15377089 
2255.022 15564215 15846159 16149350 16394829 16515516 16467322 16238680 
2258.397 15852872 15364720 14850231 14389893 14052257 13878222 13875409 
2261.773 14016703 14252602 14524946 14783244 14996025 15151420 15254014 
2265.148 15312752 15334996 15316525 15246791 15114256 14914556 14655699 
2268.523 14357753 14050313 13760225 13510283 13313133 13176257 13108201 
2271.898 13119451 13226616 13442534 13768949 14187621 14656661 15115559 
2275.274 15496978 15744928 15827654 15748532 15544218 15277089 15018809 
2278.649 14839038 14789519 14899985 15174579 15595349 16125087 16714903 
2282.024 17310704 17859368 18316402 18651408 18851994 18923242 18883022 
2285.399 18757744 18573478 18354438 18119690 17884592 17661716 17462256 
2288.775 17295390 17164364 17064790 16983320 16898964 16789024 16634578 
2292.150 16427666 16172996 15888792 15600463 15335094 15114532 14949885 
2295.525 14839617 14772318 14727775 14684219 14622260 14530921 14410889 
2298.900 14276370 14153019 14072598 14065421 14150945 14329243 14579068 
2302.276 14860570 15123983 15324651 15434203 15448831 15389718 15294907 
2305.651 15209141 15167483 15188809 15272699 15402668 15553677 15702903 
2309.026 15833480 15939094 16022051 16089879 16154395 16228043 16322672 
2312.401 16448727 16612558 16812724 17039440 17275040 17497132 17686100 
2315.777 17831838 17937338 18018824 18099176 18202554 18345092 18535280 
2319.152 18774744 19064250 19409124 19816042 20287392 20807444 21333950 
2322.527 21792526 22089270 22129734 21845520 21216722 20279294 19121146 
2325.902 17864856 16641509 15565613 14712911 14111918 13744272 13559891 
2329.278 13494028 13487982 13500475 13511878 13520777 13534302 13561062 
2332.653 13605771 13667033 13738900 13813940 13883993 13941529 13979478 
2336.028 13991700 13974261 13927689 13858723 13779919 13708073 13659534 
2339.403 13646008 13671528 13730148 13809389 13893546 13966334 14016497 
2342.779 14038192 14030532 13996888 13941892 13871597 13791198 13704940 
2346.154 13615426 13522412 13422434 13309111 13175178 13015992 12832804 
2349.529 12634123 12438714 12268795 12147154 12087206 12090235 12141535 
2352.904 12216131 12283894 12320195 12313006 12266176 12197611 12130757 
2356.280 12086553 12072353 12081779 12094446 12085217 12031944 11923843 
2359.655 11765096 11571274 11363251 11157878 10964004 10779106 10595747 
2363.030 10405386 10207391 10009905 9829541 9684571 9588683 9544906 9545269 
2366.887 9572226 9606716 9632270 9641360 9634134 9617710 9599856 9588175 
2370.745 9586795 9597785 9623689 9667060 9731159 9817196 9921380 10033715 
2374.602 10139038 10221204 10265569 10265744 10223770 10151319 10065001 
2377.978 9983826 9924348 9897073 9907118 9951400 10021899 10105578 10188336 
2381.835 10257427 10304704 10330153 10341096 10350846 10373206 10416645 
2385.210 10479420 10548612 10602660 10618462 10580257 10485136 10345314 
2388.585 10185552 10034862 9918583 9850391 9830232 9846370 9880351 9914988 
2392.443 9939634 9952604 9960053 9971988 9996906 10038815 10094848 10155232 
2396.300 10207785 10242158 10253522 10245396 10229401 10221104 10233755 
2399.676 10272986 10331511 10389739 10420833 10397930 10305411 10145742 
2403.051 9939895 9724120 9539970 9423465 9396087 9460781 9605063 9805597 
2406.908 10036604 10275322 10505567 10716042 10900592 11052655 11169774 
2410.283 11250386 11295672 11310446 11300755 11271507 11228268 11174589 
2413.659 11115639 11059253 11016591 10998252 11010800 11050938 11105739 
2417.034 11152710 11170885 11146715 11083100 10998486 10921700 10880617 
2420.409 10890644 10947196 11028579 11102379 11138005 11117102 11040528 
2423.784 10924169 10794223 10675928 10589172 10545085 10548157 10599060 
2427.160 10699296 10845657 11031683 11241075 11448313 11623520 11740206 
2430.535 11782601 11754395 11675755 11580307 11502511 11470648 11497290 
2433.910 11579626 11701634 11841162 11975376 12085496 12160231 12195305 
2437.285 12195268 12170391 12137823 12117094 12126765 12180020 12278281 
2440.661 12411360 12557192 12689020 12782175 12823526 12812949 12766148 
2444.036 12706957 12662333 12650731 12678726 12737569 12807515 12862554 
2447.411 12881096 12849565 12769991 12657799 12539082 12442014 12389349 
2450.786 12391292 12441390 12519286 12597055 12645498 12644775 12589348 
2454.162 12488485 12363075 12241167 12148931 12106378 12124313 12201455 
2457.537 12327480 12484135 12647799 12794396 12901893 12957056 12957945 
2460.912 12914435 12846887 12778575 12727414 12700343 12687221 12667731 
2464.287 12617500 12519081 12371796 12194564 12022661 11896827 11852043 
2467.663 11907349 12058359 12279853 12530691 12765045 12939813 13025685 
2471.038 13007760 12892938 12704737 12480772 12265800 12101345 12016584 
2474.413 12019755 12096065 12212473 12328194 12410102 12441576 12434199 
2477.788 12418347 12435218 12517729 12680231 12908175 13164117 13398501 
2481.164 13565254 13635335 13604674 13493118 13336804 13177867 13051629 
2484.539 12980929 12973530 13022472 13111785 13219735 13326071 13413595 
2487.914 13472700 13499103 13496457 13470762 13429436 13377150 13315659 
2491.289 13245203 13166956 13086506 13016480 12972682 12972430 13028133 
2494.665 13141831 13304542 13496559 13693287 13870774 14009967 14099685 
2498.040 14134607 14115780 14046203 13931301 13779121 13602159 13416429 
2501.415 13240225 13089569 12975962 12900502 12856406 12830425 12809725 
2504.790 12786663 12764351 12755466 12780098 12859201 13008276 13229081 
2508.166 13508149 13814918 14108924 14346584 14491845 14526322 14455425 
2511.541 14307359 14128477 13968699 13868162 13844255 13886138 13957736 
2514.916 14010882 14001160 13905316 13728309 13503644 13280795 13110337 
2518.291 13025113 13031918 13111195 13224391 13330206 13396670 13412170 
2521.667 13385133 13336516 13293127 13272312 13280941 13312091 13353496 
2525.042 13392209 13423818 13452391 13490297 13549067 13634487 13740720 
2528.417 13850567 13940101 13985875 13974704 13907828 13803399 13690705 
2531.792 13602437 13565360 13592324 13680824 13813569 13963806 14104085 
2535.167 14211080 14270804 14280243 14246262 14183744 14110051 14043655 
2538.543 13998367 13981260 13989283 14011286 14029376 14025644 13988224 
2541.918 13914714 13815165 13709615 13620330 13566680 13559011 13596408 
2545.293 13670187 13768937 13882682 14007759 14143242 14290332 14446132 
2548.668 14603727 14750616 14876176 14969335 15026557 15045078 15023155 
2552.044 14953403 14826884 14633990 14374208 14060137 13724618 13411946 
2555.419 13169756 13033343 13015576 13101089 13252923 13423529 13571060 
2558.794 13670169 13718670 13733105 13739556 13762760 13819651 13915322 
2562.169 14045769 14201648 14372314 14546683 14714257 14861768 14975413 
2565.545 15043104 15058424 15022038 14945643 14845257 14738806 14638966 
2568.920 14551857 14477142 14413356 14361366 14328428 14324902 14361940 
2572.295 14442590 14559716 14693139 14816602 14903043 14934275 14905770 
2575.670 14827964 14722629 14617699 14539034 14509136 14540408 14638247 
2579.046 14798384 15010142 15253381 15503092 15729534 15904745 16007591 
2582.421 16030107 15978325 15873829 15745774 15625330 15535587 15487682 
2585.796 15477451 15491718 15511467 15521569 15514032 15490057 15456506 
2589.171 15422164 15392937 15369006 15346026 15319031 15286980 15256309 
2592.547 15239293 15253277 15312118 15422042 15576115 15756940 15940048 
2595.922 16101345 16223807 16302759 16345074 16366886 16386693 16420662 
2599.297 16478412 16561093 16662873 16773878 16881172 16972330 17036040 
2602.672 17065110 17058202 17022388 16973254 16934348 16931704 16987328 
2606.048 17112132 17301538 17534110 17777612 17996142 18161660 18258570 
2609.423 18288826 18267866 18217274 18157524 18101188 18050278 17999086 
2612.798 17938560 17863762 17775570 17684448 17604648 17551314 17532370 
2616.173 17547662 17586466 17632680 17668522 17682082 17670450 17642150 
2619.549 17613138 17603596 17630290 17703032 17821328 17977980 18159960 
2622.924 18354834 18553256 18751082 18945912 19136606 19318812 19485624 
2626.299 19629156 19741934 19822350 19873116 19902368 19918962 19928462 
2629.674 19931768 19923802 19898098 19851098 19785446 19711258 19644946 
2633.050 19602568 19596488 19629726 19695300 19779022 19863310 19932086 
2636.425 19975638 19990670 19981702 19958584 19934038 19921398 19933314 
2639.800 19977092 20054804 20161758 20285230 20408404 20511942 20580576 
2643.175 20605552 20587286 20534314 20461530 20384788 20318646 20273006 
2646.551 20253136 20260044 20291764 20344038 20408924 20477768 20537614 
2649.926 20577192 20585854 20559110 20498284 20411236 20309760 20206106 
2653.301 20110120 20025646 19952600 19886872 19822372 19755350 19682840 
2656.676 19604400 19521104 19435632 19350314 19267836 19190708 19119738 
2660.052 19054302 18990458 18920764 18837250 18732466 18603088 18450820 
2663.427 18283812 18113630 17953812 17814666 17702568 17619588 17563126 
2666.802 17529796 17515470 17515582 17525930 17541306 17554800 17559138 
2670.177 17549734 17524786 17487788 17446018 17408992 17384090 17374550 
2673.552 17377322 17385136 17387818 17376558 17347120 17301380 17247074 
2676.928 17195994 17160558 17150864 17171062 17219732 17287072 17359214 
2680.303 17419758 17454174 17453256 17414456 17342898 17249038 17145404 
2683.678 17043638 16951862 16874856 16814348 16772322 16750595 16751345 
2687.053 16772505 16808934 16848364 16875242 16874476 16837000 16765064 
2690.429 16673578 16585588 16527152 16516995 16561842 16653676 16772883 
2693.804 16895770 17002310 17080004 17126828 17147924 17151266 17142456 
2697.179 17124482 17096164 17057946 17012368 16967412 16933872 16922286 
2700.554 16939558 16985708 17053310 17130114 17202678 17258818 17292256 
2703.930 17300614 17287604 17259130 17222456 17185496 17154078 17132016 
2707.305 17120778 17118640 17122322 17128470 17134340 17140576 17150372 
2710.680 17169096 17201956 17251146 17314120 17382686 17445622 17490424 
2714.055 17507586 17493260 17450902 17389446 17322674 17265470 17231174 
2717.431 17228846 17260410 17321232 17399632 17480074 17544908 17579670 
2720.806 17575922 17533924 17461432 17372720 17283432 17207024 17150100 
2724.181 17113666 17092794 17081710 17075110 17072086 17074738 17088118 
2727.556 17115432 17157432 17209902 17264960 17312792 17345678 17359850 
2730.932 17355844 17340452 17323488 17314790 17323724 17353616 17403000 
2734.307 17464720 17527204 17579406 17611854 17620754 17609500 17584902 
2737.682 17557432 17534566 17519880 17510252 17499980 17480302 17447906 
2741.057 17404066 17356342 17315610 17292932 17293296 17316444 17354816 
2744.433 17398372 17437418 17466508 17484994 17497388 17509698 17527366 
2747.808 17552614 17584158 17617556 17647826 17669226 17677502 17669968 
2751.183 17646050 17606862 17557108 17502988 17454688 17420900 17409596 
2754.558 17423668 17460150 17511104 17565962 17615468 17654424 17683194 
2757.934 17706968 17732788 17767892 17815168 17873592 17938730 18005372 
2761.309 18068512 18124992 18172754 18210686 18236172 18245860 18236864 
2764.684 18208704 18166112 18118306 18078666 18059670 18071100 18114742 
2768.059 18184284 18266514 18345430 18406296 18440348 18446168 18429520 
2771.435 18400936 18372148 18353984 18353540 18374178 18415914 18476984 
2774.810 18554040 18644202 18744488 18852102 18964622 19080836 19200094 
2778.185 19322112 19446240 19570428 19690640 19801920 19897976 19974866 
2781.560 20032958 20077382 20118078 20167128 20234106 20324378 20434664 
2784.936 20556168 20675850 20782714 20870280 20939366 20996548 21051122 
2788.311 21109662 21174052 21237900 21292556 21327380 21336898 21323834 
2791.686 21297674 21273484 21266236 21286670 21339050 21419236 21518114 
2795.061 21625522 21731840 21831410 21922628 22006804 22086386 22164394 
2798.437 22242528 22320410 22398510 22475600 22551488 22624478 22693998 
2801.812 22757960 22815234 22863060 22901156 22929236 22951262 22973676 
2805.187 23007554 23066260 23162988 23307432 23502092 23738490 23999204 
2808.562 24258644 24491628 24678668 24812400 24898478 24955984 25007420 
2811.938 25074470 25171034 25300936 25459356 25638694 25831732 26037160 
2815.313 26257648 26497128 26757424 27034658 27320348 27604290 27879884 
2818.688 28148282 28419496 28710950 29041310 29424042 29864388 30358218 
2822.063 30894124 31459316 32043870 32645908 33269872 33928416 34636728 
2825.438 35411580 36266644 37212736 38254756 39391340 40615336 41913976 
2828.814 43271496 44673928 46111420 47582548 49092920 50652748 52271836 
2832.189 53955460 55698892 57490708 59313884 61153872 63002064 64859256 
2835.564 66732756 68634240 70571520 72547272 74554984 76583232 78617464 
2838.939 80645744 82659424 84655248 86630504 88581648 90500320 92374096 
2842.315 94185312 95915352 97545232 99059496 100446704 101701408 102822520 
2845.690 103814888 104686288 105444984 106096744 106641976 107074336 
2848.583 107381472 107548336 107562816 107419000 107122224 106686216 
2851.476 106132752 105485656 104767392 103995776 103185528 102347944 
2854.369 101494656 100634072 99772808 98911448 98042008 97148872 96212592 
2857.744 95216728 94154528 93033472 91876576 90715280 89584048 88510152 
2861.120 87508760 86578928 85708088 84876976 84067192 83265152 82466848 
2864.495 81676280 80905112 80168200 79481688 78859888 78314256 77849088 
2867.870 77464536 77152256 76900416 76695240 76524408 76382264 76269400 
2871.245 76194440 76169608 76206672 76315080 76497408 76751176 77071152 
2874.621 77452176 77892456 78395200 78965400 79609688 80331936 81131760 
2877.996 82002264 82933680 83911992 84924128 85956424 86998776 88042312 
2881.371 89080912 90111432 91134008 92152048 93173088 94207752 95269136 
2884.746 96368808 97516080 98715224 99964568 101254184 102571392 103900464 
2888.122 105227176 106542776 107845760 109143384 110449048 111778200 
2891.015 113145760 114558872 116018024 117515424 119039280 120577704 
2893.908 122123296 123675288 125240472 126828312 128449680 130111408 
2896.801 131814808 133555744 135330032 137133488 138968720 140844528 
2899.694 142776224 144780704 146873760 149063536 151349440 153721456 
2902.587 156161712 158647872 161160592 163682384 166205504 168728768 
2905.480 171256816 173798720 176363408 178956704 181581312 184235312 
2908.373 186914224 189612752 192325424 195047552 197775136 200502112 
2911.266 203220912 205919216 208583680 211196048 213739744 216196768 
2914.159 218552304 220790896 222900384 224867856 226682288 228334672 
2917.052 229817552 231127952 232266320 233236096 234042080 234690448 
2919.945 235186208 235533488 235734496 235790288 235701488 235465712 
2922.838 235080928 234544768 233855808 233016688 232035888 230927600 
2925.731 229712320 228411840 227047808 225635104 224180704 222682800 
2928.625 221133344 219520896 217837728 216080320 214254592 212371120 
2931.518 210446384 208495920 206532176 204561264 202583648 200590624 
2934.411 198569712 196506368 194386640 192201184 189948496 187636592 
2937.304 185282064 182906848 180535584 178187744 175873504 173591568 
2940.197 171328544 169062992 166772464 164436736 162046704 159603664 
2943.090 157120928 154617840 152117264 149638720 147196320 144796128 
2945.983 142439008 140120272 137834176 135573536 133333344 131109368 
2948.876 128897888 126695304 124498848 122304968 120111816 117918536 
2951.769 115727832 113544784 111378800 109240080 107141632 105093776 
2954.662 103106064 101182176 99320672 97515192 95754552 94024656 92312272 
2958.037 90606680 88903976 87206176 85522864 83868560 82259184 80709392 
2961.413 79229232 77820064 76476256 75186216 73937712 72718832 71525736 
2964.788 70360968 69235152 68164672 67165672 66252076 65429868 64696312 
2968.163 64041184 63448688 62900588 62381560 61880244 61392060 60920112 
2971.538 60471824 60059440 59694504 59388448 59146096 58966016 58838072 
2974.914 58745184 58664228 58571896 58447464 58279564 58066336 57816136 
2978.289 57545060 57271068 57008808 56766220 56542476 56330964 56122836 
2981.664 55910432 55690980 55467172 55245180 55032960 54835244 54655132 
2985.039 54491808 54344324 54210844 54092496 53990008 53904928 53837264 
2988.415 53785276 53746264 53720140 53708376 53716612 53753368 53827936 
2991.790 53948300 54121228 54352520 54649708 55024044 55492584 56075288 
2995.165 56792672 57658808 58677500 59839180 61121640 62494304 63923092 
2998.540 65373944 66817640 68227896 69580840 70851416 72014352 73040984 
3001.916 73905152 74582224 75054120 75310424 75350344 75183168 74829344 
3005.291 74318016 73687336 72978824 72235096 71491576 70775384 70101856 
3008.666 69477968 68904216 68383176 67918584 67522520 67208656 66994116 
3012.041 66892780 66916616 67075900 67383872 67858368 68522096 69400664 
3015.417 70517504 71888112 73517608 75402336 77534160 79906840 82522136 
3018.792 85388816 88520016 91923152 95593152 99500952 103596160 107805960 
3022.167 112043272 116212824 120218504 123965840 127364520 130328808 
3025.060 132783472 134664816 135929696 136557440 136554496 135947856 
3027.953 134779456 133098688 130955128 128396112 125467656 122219176 
3030.846 118707904 114998552 111163584 107275512 103398856 99585968 95872896 
3034.221 92281952 88825960 85513848 82356224 79365968 76559672 73950128 
3037.597 71545656 69345544 67338888 65506420 63823140 62261436 60795308 
3040.972 59403276 58070520 56791300 55568332 54413888 53347012 52391692 
3044.347 51572036 50907172 50408352 50076504 49901744 49865608 49946780 
3047.722 50124256 50382268 50712508 51115064 51596116 52166636 52839160 
3051.098 53625708 54535056 55573416 56741152 58033264 59438120 60935784 
3054.473 62500932 64102932 65709248 67290304 68819000 70275168 71641208 
3057.848 72903824 74046952 75053520 75903456 76576560 77054320 77324392 
3061.223 77379896 77222104 76855192 76286984 75524624 74576936 73454440 
3064.599 72174328 70760552 69248856 67680840 66101796 64554124 63072472 
3067.974 61678236 60381216 59181028 58070680 57042880 56092156 55218380 
3071.349 54424836 53717452 53101740 52581004 52155492 51822732 51578556 
3074.724 51419576 51343456 51350232 51442804 51627264 51910052 52297528 
3078.100 52792592 53392548 54086304 54851976 55658088 56465132 57228172 
3081.475 57901876 58446304 58826236 59017100 59000504 58764156 58301160 
3084.850 57608668 56690220 55559612 54241244 52773564 51204184 49584880 
3088.225 47963440 46377256 44846760 43378444 41964840 40597052 39269568 
3091.601 37988508 36769668 35638576 34619648 33730348 32974462 32341644 
3094.976 31809200 31351536 30947010 30584768 30267114 30007674 29824174 
3098.351 29732688 29737836 29832120 29991756 30184124 30373320 30526972 
3101.726 30623698 30656744 30631748 30566358 30481172 30395438 30318210 
3105.102 30248322 30171260 30066078 29907626 29675900 29358594 28956468 
3108.477 28478916 27944912 27375322 26790028 26204078 25626914 25064526 
3111.852 24519944 23996616 23499246 23032658 22603528 22216260 21872610 
3115.227 21572462 21313818 21092892 20905178 20744906 20605580 20478812 
3118.603 20356524 20230120 20095294 19952258 19806570 19668406 19549204 
3121.978 19456208 19391418 19346450 19307552 19255100 19173556 19053452 
3125.353 18896676 18713098 18521398 18341010 18188416 18073808 17999816 
3128.728 17964984 17962710 17986282 18029200 18085268 18146190 18203456 
3132.104 18246326 18265230 18253418 18208034 18132442 18034514 17925196 
3135.479 17816804 17718806 17638892 17581908 17550280 17545714 17567052 
3138.854 17611366 17672652 17741654 17807308 17858644 17888278 17895030 
3142.229 17883218 17864654 17852410 17859160 17891558 17949614 18025116 
3145.604 18106978 18182744 18245118 18292188 18328708 18361958 18399552 
3148.980 18442028 18482714 18507654 18500966 18447184 18342280 18191208 
3152.355 18011854 17826750 17658020 17520904 17418264 17341322 17275368 
3155.730 17203892 17117682 17017048 16913106 16824392 16771033 16768087 
3159.105 16824152 16937890 17099908 17295712 17506772 17713152 17896378 
3162.481 18037752 18124066 18148390 18112916 18029098 17917004 17800632 
3165.856 17701872 17635496 17606402 17609724 17633982 17664418 17690714 
3169.231 17707444 17715250 17718686 17723402 17732272 17745822 17760128 
3172.606 17770280 17770102 17756616 17728740 17687968 17639722 17589972 
3175.982 17545432 17511108 17488930 17477616 17471630 17464578 17449306 
3179.357 17424110 17390586 17356622 17329482 17317700 17321604 17337576 
3182.732 17356538 17370704 17375256 17374254 17376886 17396722 17442432 
3186.107 17515092 17605100 17694394 17763390 17796464 17788990 17746730 
3189.483 17684122 17617216 17557894 17510120 17470042 17430700 17386634 
3192.858 17338700 17295040 17268186 17269080 17302766 17363584 17438148 
3196.233 17507372 17553990 17567472 17547912 17502592 17445992 17390342 
3199.608 17345302 17311308 17285356 17259504 17228810 17192846 17156224 
3202.984 17128512 17120236 17137860 17181822 17244716 17313870 17374334 
3206.359 17416856 17437334 17442646 17444622 17458654 17495080 17556716 
3209.734 17634416 17710206 17761238 17766490 17712474 17599590 17438614 
3213.109 17252284 17067424 16910670 16802176 16751871 16760422 16818580 
3216.485 16909874 17015868 17117588 17199160 17250640 17267910 17253218 
3219.860 17214544 17163006 17111240 17071666 17054880 17065968 17107110 
3223.235 17174102 17259280 17351520 17439464 17512724 17565772 17598162 
3226.610 17614000 17620744 17626628 17636844 17654098 17675804 17698164 
3229.986 17716740 17730114 17739046 17745164 17750524 17754364 17753324 
3233.361 17742518 17718798 17683568 17643984 17612532 17601804 17621908 
3236.736 17673836 17750106 17834554 17910122 17961150 17982086 17974976 
3240.111 17950470 17920844 17896758 17881256 17870640 17855240 17825032 
3243.487 17773158 17698742 17607762 17510992 17420296 17345688 17293932 
3246.862 17267204 17262582 17277018 17305946 17345132 17391298 17442388 
3250.237 17494802 17546794 17594990 17638176 17674834 17704952 17727440 
3253.612 17741530 17743832 17730082 17694706 17634308 17549320 17446612 
3256.988 17339184 17245066 17183152 17168758 17207366 17295720 17419646 
3260.363 17559800 17696512 17815110 17907702 17974496 18018206 18042116 
3263.738 18044562 18021158 17965980 17877260 17761570 17634788 17519704 
3267.113 17440650 17413194 17441628 17514262 17607090 17691842 17743156 
3270.489 17746428 17700106 17614480 17507982 17399376 17302488 17224460 
3273.864 17165076 17118196 17076790 17032736 16982306 16924606 16862058 
3277.239 16800266 16745705 16705533 16684357 16684501 16704107 16737791 
3280.614 16778966 16821248 16862886 16905088 16954124 17017598 17101348 
3283.990 17207262 17331390 17463384 17591794 17703606 17789328 17843656 
3287.365 17865462 17856390 17819958 17759902 17680746 17585454 17478778 
3290.740 17366232 17254758 17152098 17066850 17006972 16978768 16983572 
3294.115 17016876 17067416 17118086 17148328 17142988 17093990 17007500 
3297.490 16903302 16810694 16758639 16767280 16839412 16957368 17087764 
3300.866 17192970 17240756 17215044 17121220 16982426 16832192 16702306 
3304.241 16615700 16581791 16596509 16647236 16718483 16796182 16868918 
3307.616 16927598 16965442 16976676 16958074 16911614 16844728 16771499 
3310.991 16707240 16666165 16656822 16680231 16732074 16805480 16895132 
3314.367 16998698 17116642 17248300 17388126 17525558 17645576 17732924 
3317.742 17778568 17783600 17759246 17721634 17687130 17664868 17654512 
3321.117 17648944 17635912 17607830 17564030 17510968 17459118 17417176 
3324.492 17387260 17365478 17342570 17311628 17271756 17232426 17209598 
3327.868 17219458 17271054 17360730 17468968 17566306 17620784 17607808 
3331.243 17518526 17362524 17167168 16969326 16807090 16712202 16702659 
3334.618 16778954 16927042 17122488 17333570 17530192 17687724 17791810 
3337.993 17837598 17830992 17783618 17710248 17623306 17530964 17436254 
3341.369 17339168 17239818 17141006 17051026 16982428 16949122 16962664 
3344.744 17024872 17127694 17250518 17365870 17446700 17473572 17439830 
3348.119 17356682 17248146 17145646 17076700 17059504 17095878 17173832 
3351.494 17270800 17363868 17434258 17473082 17480542 17460674 17418306 
3354.870 17355118 17269302 17160068 17031680 16896966 16777642 16698917 
3358.245 16680833 16732754 16847290 17003986 17172344 17323530 17435104 
3361.620 17497004 17509998 17482520 17424698 17346786 17257242 17166324 
3364.995 17085986 17032026 17019688 17059250 17151422 17283136 17431044 
3368.371 17565798 17661960 17703132 17687132 17624564 17534854 17439018 
3371.746 17355712 17296804 17267392 17267146 17292912 17336674 17389610 
3375.121 17439282 17472898 17478790 17449698 17387542 17302718 17213122 
3378.496 17140154 17102048 17110156 17166638 17263030 17384278 17512598 
3381.872 17630530 17724348 17786660 17815062 17814084 17792450 17763994 
3385.247 17744164 17747714 17786576 17865316 17981344 18124458 18278424 
3388.622 18425396 18547752 18631252 18666434 18648498 18577760 18459674 
3391.997 18304010 18124538 17937414 17760156 17609614 17497396 17429200 
3395.373 17404584 17416162 17451772 17496614 17536570 17560362 17561828 
3398.748 17542212 17509372 17477774 17464068 17484216 17547814 17654434 
3402.123 17792460 17941494 18076656 18175794 18224384 18219770 18170842 
3405.498 18093688 18008632 17932816 17877198 17845794 17835518 17839412 
3408.874 17848452 17853264 17847096 17826750 17791984 17746230 17695772 
3412.249 17648160 17610494 17586660 17578504 17584762 17603158 17631522 
3415.624 17669394 17715302 17767520 17819868 17863298 17886676 17882094 
3418.999 17848500 17795750 17742644 17712000 17724704 17790300 17904336 
3422.375 18048256 18196472 18323962 18413714 18462712 18479330 18479516 
3425.750 18480508 18494262 18525600 18572818 18628786 18685346 18733990 
3429.125 18766536 18775736 18756164 18704242 18623420 18521966 18414854 
3432.500 18317966 18243966 18198858 18177572 18168488 18157908 18136378 
3435.875 18103092 18067022 18042704 18045122 18082122 18153036 18248536 
3439.251 18355140 18459478 18552656 18631088 18693616 18741150 18771840 
3442.626 18782552 18771320 18739060 18693154 18644928 18607664 18592584 
3446.001 18604666 18641376 18694750 18754498 18811258 18859244 18896016 
3449.376 18920880 18934174 18935198 18923488 18899496 18866002 18827754 
3452.752 18791226 18758750 18731824 18706626 18679104 18646360 18609086 
3456.127 18572612 18543898 18529438 18529932 18539710 18548326 18545228 
3459.502 18524024 18487728 18448638 18424972 18434504 18488626 18586086 
3462.877 18712968 18846868 18961638 19035646 19057594 19028504 18960452 
3466.253 18876332 18799756 18753050 18749842 18793522 18874914 18974842 
3469.628 19068748 19130896 19143340 19097314 19000026 18869518 18732810 
3473.003 18616584 18542038 18517812 18541944 18600112 18673922 18746004 
3476.378 18803534 18843234 18868594 18886496 18904752 18927912 18956214 
3479.754 18985928 19010394 19023536 19020682 18999954 18962164 18912564 
3483.129 18856402 18802568 18759942 18738576 18747596 18795558 18888556 
3486.504 19029192 19217264 19446256 19705084 19975968 20237954 20466662 
3489.879 20640370 20743220 20769654 20726320 20631254 20510014 20388050 
3493.255 20285880 20213722 20170168 20144674 20125276 20101998 20072256 
3496.630 20040042 20013104 19997078 19992670 19994132 19991368 19975678 
3500.005 19944476 19903394 19865236 19844818 19852490 19888376 19942030 
3503.380 19994636 20025034 20016848 19964304 19873976 19762684 19651840 
3506.756 19564626 19518232 19523272 19580230 19681954 19811156 19946172 
3510.131 20063330 20142928 20174694 20161784 20121396 20080648 20068072 
3513.506 20104798 20197804 20336152 20496152 20649952 20774170 20858036 
3516.881 20904128 20924480 20932784 20938254 20942070 20939500 20924872 
3520.257 20897352 20863200 20834600 20822310 20831552 20857594 20886596 
3523.632 20903068 20896102 20865814 20823562 20787216 20773128 20787572 
3527.007 20824058 20865408 20891126 20885570 20845044 20780446 20714174 
3530.382 20673728 20683788 20760138 20908274 21120660 21379530 21661078 
3533.758 21937288 22180472 22367082 22483276 22525692 22503320 22432668 
3537.133 22334534 22225200 22115132 22006584 21898490 21792280 21694490 
3540.508 21620116 21586180 21605894 21679772 21793544 21918784 22020612 
3543.883 22068274 22042686 21940844 21775956 21569944 21348290 21134118 
3547.259 20945648 20794200 20686098 20623846 20602576 20610856 20630940 
3550.634 20644236 20635114 20599276 20543158 20484876 20443878 20432334 
3554.009 20448110 20472606 20476338 20430654 20319058 20144050 19927592 
3557.384 19704180 19507246 19360776 19273016 19238854 19244802 19279418 
3560.760 19334470 19407218 19497084 19597730 19697932 19779396 19825002 
3564.135 19824816 19779408 19702288 19613068 19532082 19473460 19441744 
3567.510 19433358 19442332 19462556 19492012 19531290 19582196 19642108 
3570.885 19705028 19761018 19800602 19818618 19816020 19798548 19775076 
3574.260 19752318 19730990 19708340 19678364 19635418 19579264 19513732 
3577.636 19447588 19389828 19346582 19319654 19306764 19303362 19304638 
3581.011 19308680 19315366 19326614 19343040 19363430 19384308 19400984 
3584.386 19408644 19404158 19388606 19363426 19332466 19297164 19255956 
3587.761 19205354 19140656 19057530 18959212 18852572 18752050 18674260 
3591.137 18635108 18643148 18696478 18781868 18878610 18962368 19014334 
3594.512 19025324 19000266 18953978 18908884 18886696 18901772 18958716 
3597.887 19051874 19167268 19289464 19402882 19495450 19560264 19592964 
3601.262 19591962 19557610 19494490 19409476 19315138 19229246 19170770 
3604.638 19157256 19201050 19305084 19461532 19653366 19857374 20050330 
3608.013 20213448 20337260 20423078 20481416 20527170 20574514 20629022 
3611.388 20687302 20735170 20753948 20728578 20651892 20530424 20383576 
3614.763 20236830 20114194 20032668 19998086 20005486 20046756 20112554 
3618.139 20200958 20314288 20457538 20632916 20834974 21050726 21260608 
3621.514 21447460 21598250 21708690 21781438 21822438 21837272 21828004 
3624.889 21794006 21735892 21657910 21571870 21494094 21440426 21423294 
3628.264 21444178 21494924 21560676 21625110 21677368 21714516 21742650 
3631.640 21772494 21816750 21883712 21978038 22098272 22239060 22391256 
3635.015 22542162 22677604 22783392 22845206 22857526 22821678 22749986 
3638.390 22662998 22584548 22536416 22532306 22575540 22659660 22772438 
3641.765 22898360 23025052 23144562 23251006 23344006 23423438 23492594 
3645.141 23553432 23609878 23664134 23714724 23757356 23781840 23778852 
3648.516 23740396 23666956 23569080 23466394 23382098 23337068 23340026 
3651.891 23385596 23454998 23520738 23555046 23537756 23461854 23336408 
3655.266 23183538 23031870 22910282 22841772 22833720 22881358 22964054 
3658.642 23056242 23130876 23170952 23173142 23150232 23124972 23121866 
3662.017 23156670 23228424 23318180 23395272 23428166 23397860 23304086 
3665.392 23167294 23019258 22891658 22802482 22748288 22707154 22644552 
3668.767 22527694 22336592 22071124 21750040 21406498 21077484 20797506 
3672.143 20590828 20471388 20442272 20497226 20622238 20795020 20990692 
3675.518 21182610 21349910 21480242 21570726 21626660 21654198 21656540 
3678.893 21630840 21571028 21471168 21333844 21169180 20996958 20837680 
3682.268 20706800 20606186 20525816 20447904 20355880 20240468 20104392 
3685.644 19959630 19819672 19692542 19576026 19459862 19330808 19183558 
3689.019 19026012 18877220 18764028 18709450 18725752 18810238 18948342 
3692.394 19121908 19316458 19525696 19750628 19992874 20246752 20494032 
3695.769 20705444 20846598 20890138 20823990 20658546 20420230 20147640 
3699.145 19876760 19634770 19434442 19277888 19159156 19075274 19025262 
3702.520 19014332 19047470 19124454 19237720 19371518 19505490 19620986 
3705.895 19706942 19761466 19791638 19806026 19812830 19813418 19803180 
3709.270 19774030 19721604 19648632 19567686 19495800 19450166 19438752 
3712.646 19458454 19492860 19520170 19522706 19495468 19449538 19411070 
3716.021 19412344 19479542 19623424 19832938 20075208 20306848 20482424 
3719.396 20569326 20555638 20454690 20300540 20140120 20020756 19979770 
3722.771 20030186 20159680 20331688 20492518 20589532 20583948 20467100 
3726.146 20263468 20026062 19820756 19704300 19708728 19827196 20017628 
3729.522 20217890 20365038 20414984 20353154 20196422 19981334 19750320 
3732.897 19538180 19362814 19228984 19133688 19073054 19047846 19060822 
3736.272 19112258 19197280 19302248 19409884 19505520 19580624 19637318 
3739.647 19683366 19725664 19767724 19803896 19826780 19830714 19819838 
3743.023 19807330 19812766 19851734 19927756 20028298 20132012 20216280 
3746.398 20272296 20310226 20356464 20443832 20595742 20813874 21072738 
3749.773 21326418 21523296 21624536 21615098 21509052 21344288 21165518 
3753.148 21014934 20919374 20888676 20917566 20993724 21102042 21227542 
3756.524 21356992 21477278 21576534 21645162 21678478 21679112 21654630 
3759.899 21614740 21569666 21522182 21470140 21405710 21321184 21213026 
3763.274 21085270 20950292 20825014 20727628 20671412 20663446 20700718 
3766.649 20772122 20862002 20950268 21019970 21058196 21059122 21026772 
3770.025 20973540 20918020 20880324 20876288 20912626 20985688 21081812 
3773.400 21180120 21258066 21297774 21290612 21237196 21149806 21047444 
3776.775 20952160 20882332 20849632 20851530 20875366 20896546 20889064 
3780.150 20833002 20722124 20569366 20403260 20262122 20181858 20185824 
3783.526 20275836 20434930 20630894 20828332 20998654 21126730 21211892 
3786.901 21263016 21292294 21309368 21318692 21320772 21314452 21300502 
3790.276 21282604 21264446 21250100 21239568 21231070 21221040 21209352 
3793.651 21197916 21192844 21198848 21217208 21244360 21269866 21283014 
3797.027 21276032 21248656 21209416 21172978 21155392 21167896 21214068 
3800.402 21288056 21375462 21459702 21523166 21553722 21545476 21501614 
3803.777 21434246 21361626 21307130 21293354 21337310 21442466 21597356 
3807.152 21775058 21938880 22051746 22086506 22032004 21896532 21701048 
3810.528 21475864 21249248 21041662 20866408 20728732 20629658 20570992 
3813.903 20555296 20584768 20659548 20774412 20916970 21072122 21222976 
3817.278 21356450 21465882 21552408 21622292 21687202 21757640 21841048 
3820.653 21939494 22046174 22145194 22217158 22240112 22198760 22088840 
3824.029 21921514 21721554 21524392 21364822 21270190 21253092 21309584 
3827.404 21421832 21564314 21711464 21842724 21944720 22009970 22035118 
3830.779 22019372 21963360 21872222 21756622 21632256 21519314 21436072 
3834.154 21397078 21408390 21467072 21561942 21678214 21799160 21907262 
3837.530 21988472 22030148 22025568 21973176 21881714 21766392 21649374 
3840.905 21554242 21497774 21486030 21510906 21551012 21580928 21573062 
3844.280 21511902 21393180 21226700 21033482 20839338 20669938 20548646 
3847.655 20490828 20503718 20585418 20724858 20902048 21092870 21273678 
3851.031 21425990 21541384 21622682 21680216 21726766 21771262 21813700 
3854.406 21845668 21854872 21830168 21767930 21674224 21563150 21452190 
3857.781 21355190 21280180 21229366 21199904 21188694 21196394 21224042 
3861.156 21274372 21345442 21428590 21508262 21566952 21587148 21561702 
3864.531 21494748 21401324 21306060 21236078 21213946 21253440 21355754 
3867.907 21508590 21688220 21863498 22000780 22070814 22054074 21947546 
3871.282 21764078 21531078 21285060 21063444 20897926 20809052 20802934 
3874.657 20871810 20998942 21161612 21337088 21506246 21653864 21773418 
3878.032 21864244 21931274 21984518 22033870 22086752 22144990 22202982 
3881.408 22249782 22271964 22260002 22212320 22134906 22043652 21957078 
3884.783 21892524 21860292 21864832 21902892 21968228 22053678 22151812 
3888.158 22254280 22349598 22421964 22453866 22428830 22340174 22194162 
3891.533 22014290 21835964 21699280 21635338 21661276 21773336 21946868 
3894.909 22148044 22339352 22490834 22587026 22627244 22622190 22589652 
3898.284 22547682 22509106 22480734 22464004 22455782 22453058 22453082 
3901.659 22455986 22462300 22472546 22485282 22497100 22501452 22492826 
3905.034 22466500 22422990 22368322 22312590 22267474 22242546 22240830 
3908.410 22259056 22286338 22311268 22325700 22329108 22331208 22349060 
3911.785 22401192 22499966 22643826 22816910 22990706 23129856 23204362 
3915.160 23195646 23102898 22942004 22739136 22525460 22326614 22157470 
3918.535 22022752 21915374 21826258 21746328 21672964 21612740 21577632 
3921.911 21584236 21646114 21768828 21947146 22164242 22392884 22604608 
3925.286 22771600 22878536 22920764 22908154 22859666 22796796 22738660 
3928.661 22697920 22679468 22682250 22703244 22739944 22791440 22855886 
3932.036 22927080 22993274 23036642 23039994 22989846 22885780 22742194 
3935.412 22585506 22448080 22357410 22327108 22353370 22417044 22490518 
3938.787 22547090 22572068 22565570 22541614 22522278 22529666 22577016 
3942.162 22668050 22794062 22939972 23088706 23226236 23344860 23441262 
3945.537 23517942 23578736 23625900 23658616 23672912 23661212 23615294 
3948.913 23530236 23407220 23255934 23093740 22943064 22824208 22748444 
3952.288 22714866 22710600 22715362 22710436 22687184 22651580 22622476 
3955.663 22622708 22668900 22764112 22891372 23020804 23121426 23173030 
3959.038 23174390 23147826 23127378 23148146 23229042 23366504 23531686 
3962.414 23682954 23774756 23778054 23685206 23513518 23296668 23076860 
3965.789 22891780 22765930 22709168 22717260 22777030 22870924 22981770 
3969.164 23096510 23205556 23303966 23389738 23463530 23527868 23584358 
3972.539 23634320 23678556 23717602 23751714 23781966 23807818 23828066 
3975.915 23837636 23828904 23793986 23727266 23631670 23519224 23411830 
3979.290 23336892 23317670 23368210 23484948 23646776 23819090 23963238 
3982.665 24047216 24052004 23978766 23845824 23682884 23524060 23397614 
3986.040 23323874 23308224 23345316 23420718 23513950 23605338 23675982 
3989.416 23715828 23718426 23686444 23627782 23554360 23480794 23422222 
3992.791 23392604 23405216 23467456 23582436 23743734 23938370 24144214 
3996.166 24335762 24488300 24585140 24619810 24598864 24538006 24457920 
3999.541 24377282 24308720 24254798 
##END=
