##TITLE=Tecor_PLA+_White_Filament_r3_ATR-Corrected
##JCAMP-DX=5.01  $$ Nicolet v. 1
##DATATYPE=INFRARED SPECTRUM
##ORIGIN=Curtin University
##OWNER=Nicolet
##LONGDATE=2024/07/19
##TIME=08:34:08
##SPECTROMETER/DATA SYSTEM=Nicolet iS50
##DATA PROCESSING=
Ratio against background
%Transmittance->Absorbance
ATR Correction
Truncated
ElementMultiply or ElementDivide
##COMMENTS=
Number of sample scans: 32
Collection length: 47.27 sec
Sample gain: 1.0
Background collected on: Fri Jul 19 08:31:08 2024 (GMT+08:00);
Number of background scans: 32
Background gain: 1.0
Sample spacing:  1.000
Number of scan points: 16672
Resolution points: 8192
Number of FFT points: 65536
Apodization: N-B strong;
Phase correction: Mertz;
Laser frequency: 15798.3 cm-1
Number of rejected sample scans: 0
Number of rejected background scans: 0
Bench serial number: AUP1200105;
##RESOLUTION=4.000
##XUNITS=1/CM
##YUNITS=ABSORBANCE
##FIRSTX=400.163452
##LASTX=4000.187744
##FIRSTY=0.060069
##MAXX=4000.187744
##MINX=400.163452
##MAXY=1.091538
##MINY=-0.039603
##XFACTOR=1.000000
##YFACTOR=1.000000E-008
##NPOINTS=7468
##DELTAX=0.482125
##ZPD=8192
##XYDATA=(X++(Y..Y))
400.163 6006925 5994929 5967221 5925857 5877941 5832858 5796103 5766145 
404.020 5734145 5687003 5611739 5500268 5352072 5175047 4983550 4795304 
407.877 4627248 4491953 4395050 4334282 4300168 4278532 4254070 4214590 
411.734 4154385 4075675 3987468 3902128 3830540 3778161 3742916 3716228 
415.591 3686238 3642379 3579229 3498565 3408648 3321502 3249012 3199466 
419.448 3175354 3173294 3185392 3201808 3213025 3211775 3193859 3158600 
423.305 3108506 3048729 2986105 2927852 2879867 2845307 2823664 2810995 
427.162 2801086 2787631 2766282 2736307 2700745 2665296 2636157 2617802 
431.019 2611312 2614130 2621012 2625703 2623404 2611842 2591886 2567081 
434.876 2542444 2523109 2513069 2514534 2527635 2550671 2580513 2613306 
438.733 2645046 2672243 2692381 2704250 2707918 2704502 2695573 2682673 
442.590 2666751 2648112 2626568 2602066 2575180 2547582 2521849 2501022 
446.447 2487490 2482186 2483825 2489057 2493119 2491288 2480200 2459003 
450.304 2429618 2396264 2364083 2337871 2320708 2313557 2315322 2323699 
454.161 2335995 2349844 2363448 2375434 2384523 2389368 2388641 2381541 
458.017 2368279 2350423 2330652 2312094 2297303 2287372 2281494 2277286 
461.874 2271564 2261559 2245820 2224444 2199668 2174393 2151560 2133545 
465.731 2121753 2116706 2118109 2125148 2136382 2149780 2162612 2171840 
469.588 2174583 2168969 2154743 2133564 2108629 2083868 2062782 2047561 
473.445 2038608 2034757 2033964 2034107 2033559 2031380 2026938 2019539 
477.302 2008086 1991201 1967745 1937620 1902331 1865127 1830487 1803094 
481.159 1786574 1782510 1789916 1805535 1824567 1841944 1853371 1856202 
485.016 1849743 1835049 1814477 1791061 1767890 1747654 1732283 1722833 
488.873 1719399 1721235 1726875 1734473 1742044 1747937 1751023 1751024 
492.730 1748488 1744681 1741228 1739542 1740845 1745309 1752048 1759315 
496.587 1764894 1766717 1763445 1754918 1742228 1727413 1712863 1700643 
500.444 1691958 1686965 1684972 1684933 1686052 1688151 1691715 1697577 
504.301 1706279 1717512 1729827 1740831 1747753 1748371 1741752 1728713 
508.158 1711586 1693583 1677720 1665936 1658507 1654177 1650781 1646274 
512.015 1639694 1631725 1624501 1620971 1623672 1633688 1649914 1669147 
515.871 1686847 1698395 1700411 1691762 1673709 1649471 1623022 1597923 
519.728 1576341 1558691 1544020 1530782 1517784 1504800 1492697 1482996 
523.585 1477121 1475707 1478207 1482949 1488016 1491617 1492795 1491635 
527.442 1489037 1486182 1483926 1482443 1481097 1478864 1474647 1467815 
531.299 1458368 1446905 1434376 1421807 1410034 1399641 1390976 1384268 
535.156 1379626 1377094 1376578 1377856 1380576 1384414 1389140 1394682 
539.013 1401008 1408018 1415333 1422283 1428011 1431738 1433064 1432129 
542.870 1429565 1426209 1422693 1419168 1415237 1410201 1403488 1395124 
546.727 1385932 1377394 1371150 1368449 1369649 1374066 1380241 1386439 
550.584 1391191 1393702 1393811 1391820 1388075 1382750 1375776 1367142 
554.441 1357130 1346646 1337126 1330265 1327737 1330535 1338792 1351811 
558.298 1368306 1386809 1405935 1424651 1442284 1458478 1473183 1486541 
562.155 1498917 1510755 1522406 1534023 1545279 1555483 1563681 1569064 
566.012 1571245 1570474 1567508 1563313 1558569 1553417 1547422 1539927 
569.869 1530579 1519879 1509313 1501140 1497716 1500708 1510465 1525887 
573.725 1544714 1564284 1582255 1597257 1608980 1618012 1625284 1631677 
577.582 1637720 1643574 1649232 1654735 1660307 1666367 1673449 1682038 
581.439 1692526 1705172 1720098 1737236 1756181 1776086 1795564 1812944 
585.296 1826532 1835130 1838409 1837055 1832553 1826713 1821145 1816887 
589.153 1814299 1813334 1813894 1816146 1820494 1827343 1836625 1847514 
593.010 1858395 1867283 1872540 1873551 1871083 1867107 1864160 1864484 
596.867 1869270 1878335 1890324 1903378 1915821 1926773 1936261 1944980 
600.724 1953841 1963466 1973990 1985074 1996219 2007045 2017458 2027634 
604.581 2037759 2047815 2057437 2065992 2072829 2077645 2080722 2083014 
608.438 2086043 2091547 2101146 2115986 2136490 2162356 2192533 2225479 
612.295 2259372 2292429 2323169 2350669 2374638 2395396 2413712 2430582 
616.152 2446973 2463676 2481201 2499849 2519707 2540696 2562534 2584740 
620.009 2606595 2627328 2646269 2663156 2678317 2692710 2707743 2724983 
623.866 2745694 2770549 2799538 2832016 2866970 2903262 2939804 2975659 
627.723 3009927 3041737 3070262 3094879 3115354 3132039 3145866 3158221 
631.579 3170583 3184171 3199660 3217065 3235842 3255100 3273866 3291335 
635.436 3306931 3320407 3331815 3341537 3350280 3359053 3369052 3381433 
639.293 3396998 3415954 3437739 3461158 3484611 3506585 3526012 3542555 
643.150 3556646 3569297 3581798 3595351 3610801 3628486 3648205 3669271 
647.007 3690647 3711110 3729444 3744697 3756367 3764638 3770385 3775108 
650.864 3780655 3788868 3801196 3818430 3840535 3866747 3895716 3925843 
654.721 3955551 3983509 4008879 4031370 4051276 4069345 4086627 4104182 
658.578 4122804 4142833 4164072 4185881 4207408 4227843 4246635 4263605 
662.435 4278831 4292520 4304854 4315930 4325819 4334741 4343213 4352086 
666.292 4362432 4375265 4391217 4410339 4432035 4455248 4478769 4501568 
670.149 4523020 4542982 4561626 4579243 4596082 4612232 4627684 4642454 
674.006 4656719 4670857 4685385 4700872 4717712 4736086 4755859 4776711 
677.863 4798196 4819834 4841191 4861932 4881624 4899887 4916404 4930948 
681.720 4943504 4954384 4964183 4973769 4984091 4995971 5009930 5026033 
685.577 5043914 5062890 5082175 5101145 5119540 5137527 5155592 5174374 
689.433 5194285 5215340 5237037 5258485 5278695 5296936 5313032 5327482 
693.290 5341277 5355623 5371476 5389242 5408626 5428814 5448789 5467753 
697.147 5485445 5502255 5519025 5536791 5556331 5577887 5601038 5624794 
701.004 5647779 5668566 5685914 5698925 5707122 5710438 5709134 5703796 
704.861 5695180 5684137 5671465 5657745 5643239 5627830 5611090 5592466 
708.718 5571462 5547855 5521675 5493248 5462829 5430481 5395856 5358268 
712.575 5316764 5270455 5218800 5161770 5099842 5033882 4964822 4893436 
716.432 4820177 4745174 4668329 4589442 4508309 4424704 4338417 4249196 
720.289 4156867 4061495 3963652 3864530 3765932 3670036 3578995 3494486 
724.146 3417467 3348205 3286520 3232239 3185611 3147488 3119208 3102268 
728.003 3097841 3106552 3128321 3162655 3208958 3266891 3336469 3417974 
731.860 3511588 3617068 3733479 3859190 3992070 4129796 4270162 4411245 
735.717 4551376 4689149 4823336 4952948 5077369 5196525 5310905 5421445 
739.574 5529221 5635119 5739470 5842026 5942104 6038844 6131627 6220263 
743.431 6305048 6386634 6465783 6543228 6619629 6695670 6772185 6850307 
747.287 6931391 7016822 7107766 7204856 7308091 7416697 7529296 7644026 
751.144 7758651 7870693 7977523 8076504 8165096 8241076 8302669 8348623 
755.001 8378148 8390816 8386367 8364641 8325518 8269048 8195521 8105609 
758.858 8000380 7881225 7749759 7607803 7457253 7300137 7138596 6974844 
762.715 6811024 6649051 6490446 6336243 6186965 6042772 5903573 5769171 
766.572 5639367 5513941 5392720 5275535 5162284 5052963 4947658 4846456 
770.429 4749307 4655855 4565359 4476745 4388904 4300933 4212481 4123889 
774.286 4036096 3950318 3867660 3788727 3713429 3641075 3570593 3500920 
778.143 3431277 3361332 3291229 3221462 3152701 3085658 3020987 2959167 
782.000 2900387 2844425 2790527 2737431 2683492 2627035 2566736 2502025 
785.857 2433279 2361835 2289697 2219094 2152066 2090080 2033908 1983583 
789.714 1938566 1897929 1860509 1825111 1790657 1756371 1721908 1687507 
793.571 1653880 1622120 1593336 1568364 1547448 1530198 1515659 1502633 
797.428 1489954 1476792 1462739 1447764 1432098 1416074 1400069 1384570 
801.285 1370190 1357814 1348369 1342722 1341366 1344141 1350154 1357911 
805.141 1365660 1371849 1375503 1376440 1375188 1372706 1369959 1367585 
808.998 1365644 1363683 1360947 1356736 1350738 1343197 1334936 1327178 
812.855 1321196 1318063 1318374 1322118 1328714 1337127 1346087 1354322 
816.712 1360763 1364754 1366142 1365305 1363085 1360524 1358655 1358156 
820.569 1359178 1361273 1363594 1365193 1365461 1364422 1362812 1361892 
824.426 1362998 1367001 1373889 1382680 1391666 1398969 1403285 1404371 
828.283 1403263 1402018 1403071 1408466 1419232 1435024 1454317 1474878 
832.140 1494528 1511810 1526411 1539233 1552165 1567505 1587457 1613636 
835.997 1646804 1686859 1733000 1784011 1838636 1895850 1955071 2016187 
839.854 2079477 2145441 2214548 2287114 2363133 2442302 2524120 2607887 
843.711 2692773 2777713 2861340 2941855 3017088 3084670 3142411 3188734 
847.568 3223113 3246278 3260263 3268125 3273579 3280509 3292631 3313262 
851.425 3345270 3391162 3453144 3533192 3633026 3753951 3896752 4061537 
855.282 4247703 4453889 4678039 4917470 5168934 5428766 5693002 5957655 
859.139 6218940 6473573 6718958 6953257 7175377 7384709 7580922 7763716 
862.995 7932603 8086969 8226100 8349470 8456813 8548322 8624560 8686320 
866.852 8734340 8769025 8790344 8797727 8790273 8766890 8726576 8668633 
870.709 8592738 8499005 8387996 8260637 8118162 7961984 7793563 7614221 
874.566 7424964 7226448 7019053 6803123 6579274 6348758 6113608 5876646 
878.423 5641166 5410598 5187997 4975814 4775683 4588544 4414855 4254791 
882.280 4108503 3976143 3857920 3754011 3664568 3589623 3529124 3482867 
886.137 3450425 3431059 3423601 3426474 3437737 3455278 3477100 3501513 
889.994 3527282 3553592 3580016 3606274 3632120 3657216 3681121 3703314 
893.851 3723186 3740079 3753308 3762150 3766033 3764651 3758180 3747382 
897.708 3733614 3718657 3704426 3692615 3684442 3680544 3681089 3685960 
901.565 3694957 3707945 3724833 3745441 3769350 3795746 3823527 3851449 
905.422 3878336 3903378 3926189 3946764 3965386 3982299 3997600 4011205 
909.279 4022822 4032158 4039038 4043521 4045909 4046657 4046297 4045203 
913.136 4043487 4040869 4036631 4029683 4018755 4002638 3980504 3952266 
916.993 3918739 3881586 3843111 3805779 3771661 3742000 3717005 3695886 
920.849 3677232 3659456 3641278 3621968 3601370 3579727 3557411 3534713 
924.706 3511691 3488376 3464848 3441480 3419017 3398398 3380506 3365842 
928.563 3354358 3345383 3337861 3330724 3323234 3315251 3307280 3300247 
932.420 3295164 3292660 3292748 3294751 3297489 3299664 3300324 3299265 
936.277 3297166 3295498 3296214 3301218 3311864 3328608 3350896 3377279 
940.134 3405766 3434342 3461362 3485889 3507846 3527975 3547631 3568534 
943.991 3592455 3620964 3655209 3695817 3742772 3795548 3853201 3914662 
947.848 3978983 4045573 4114293 4185413 4259417 4336644 4417098 4500266 
951.705 4585165 4670543 4755170 4838002 4918248 4995167 5067866 5134945 
955.562 5194424 5243920 5281010 5303798 5311351 5304015 5283393 5252047 
959.419 5213030 5169423 5123946 5078814 5035655 4995700 4959734 4928208 
963.276 4901225 4878428 4859059 4841950 4825653 4808559 4789082 4765749 
967.133 4737366 4703076 4662476 4615649 4563215 4506256 4446136 4384330 
970.990 4322150 4260647 4200448 4141870 4085029 4029961 3976827 3925922 
974.847 3877756 3833006 3792476 3757025 3727437 3704355 3688059 3678424 
978.703 3674883 3676470 3682065 3690577 3701231 3713655 3727845 3744026 
982.560 3762388 3783018 3805830 3830688 3857591 3886852 3919070 3955016 
986.417 3995409 4040639 4090656 4145114 4203320 4264644 4328580 4394718 
990.274 4462605 4531619 4600883 4669462 4736591 4802028 4866237 4930208 
994.131 4995154 5061994 5130904 5201246 5271776 5341186 5408725 5474630 
997.988 5540190 5607408 5678444 5755061 5838185 5927933 6023899 6125526 
1001.845 6232502 6344908 6463144 6587716 6719031 6857246 7002409 7154603 
1005.702 7314047 7481310 7657118 7842295 8037544 8243432 8460356 8688740 
1009.559 8929102 9182103 9448488 9728928 10023908 10333741 10658536 10998519 
1013.416 11354002 11725498 12113581 12518646 12940629 13378905 13832265 
1016.791 14299121 14777698 15266363 15763611 16268188 16778774 17293926 
1020.166 17811926 18330734 18848030 19361326 19868204 20366446 20854354 
1023.540 21330924 21796056 22250778 22697168 23138324 23578106 24020890 
1026.916 24471148 24933374 25411794 25910312 26432476 26981348 27559468 
1030.291 28168678 28810046 29483694 30188822 30923600 31685198 32469726 
1033.666 33272282 34087072 34907560 35726804 36537756 37333588 38107956 
1037.041 38855056 39569552 40246528 40881316 41469468 42006588 42488528 
1040.417 42911296 43271372 43565832 43792752 43951456 44042780 44068976 
1043.792 44033508 43940576 43794604 43600000 43361144 43082528 42769168 
1047.167 42426824 42061956 41681444 41292044 40899780 40509752 40125720 
1050.542 39750516 39386280 39034820 38697792 38376788 38073184 37788000 
1053.917 37521788 37274720 37046780 36838152 36649652 36483104 36341612 
1057.293 36229568 36152484 36116724 36128928 36195764 36323544 36518048 
1060.668 36784508 37127672 37551636 38059844 38654708 39337416 40107436 
1064.043 40962556 41898808 42910820 43992196 45136008 46335164 47582744 
1067.418 48871948 50196220 51549168 52924728 54317380 55722384 57135828 
1070.794 58554572 59975784 61396544 62813388 64222180 65618312 66997092 
1074.169 68354056 69685184 70986512 72253784 73481944 74664912 75795760 
1077.544 76866880 77870488 78798568 79642640 80393624 81041784 81577608 
1080.919 81992512 82280536 82438936 82468336 82371952 82154464 81821096 
1084.295 81377208 80828864 80183352 79449608 78638296 77760760 76828248 
1087.670 75850984 74838040 73797480 72736904 71663592 70584456 69505200 
1091.045 68429792 67360040 66296108 65237152 64182656 63133208 62090896 
1094.420 61058728 60039924 59036816 58050268 57079452 56122272 55175812 
1097.796 54237180 53303860 52374220 51447464 50523948 49605072 48693164 
1101.171 47791080 46901880 46028100 45171532 44332920 43512456 42710132 
1104.546 41926448 41162860 40421928 39707016 39021896 38370240 37755292 
1107.921 37179628 36645308 36153860 35706456 35303852 34946420 34634040 
1111.297 34366176 34141900 33959980 33818860 33716712 33651332 33620232 
1114.672 33620776 33650440 33707152 33789624 33897300 34030332 34189260 
1118.047 34374656 34587004 34826692 35094040 35389396 35712968 36064388 
1121.422 36441956 36842008 37258544 37683328 38106464 38517328 38905532 
1124.798 39261596 39577140 39844816 40057900 40210320 40296776 40313344 
1128.173 40258072 40131404 39936216 39677396 39360964 38993200 38579820 
1131.548 38125416 37633040 37104104 36538556 35935148 35292096 34607844 
1134.923 33881804 33114972 32310138 31471446 30603850 29712280 28801138 
1138.299 27874186 26934854 25986862 25034714 24083958 23140972 22212464 
1141.674 21304754 20423210 19572210 18755040 17974200 17231826 16529804 
1145.049 15869787 15252952 14679836 14150168 13662910 13216484 12809050 
1148.424 12438761 12104035 11803491 11535990 11300382 11095478 10919938 
1151.800 10772267 10650773 10553697 10479309 10425968 10392229 10376973 
1155.175 10379399 10399020 10435612 10489117 10559652 10647462 10753132 
1158.550 10877606 11022291 11188917 11379404 11595631 11839247 12111776 
1161.925 12414839 12750550 13121901 13533024 13989058 14495906 15059717 
1165.301 15686542 16382124 17152058 18002104 18938612 19968682 21100172 
1168.676 22341272 23699912 25183162 26796594 28543910 30426536 32443342 
1172.051 34590044 36858724 39237156 41708316 44250172 46835796 49433692 
1175.426 52008312 54520528 56928300 59187520 61253368 63082684 64636736 
1178.802 65884828 66806956 67395904 67657592 67609664 67278960 66698492 
1182.177 65904240 64932788 63819332 62596704 61294656 59939676 58554904 
1185.552 57160120 55771856 54403632 53066128 51767580 50514192 49310504 
1188.927 48159684 47063880 46024128 45040592 44112472 43238192 42415676 
1192.302 41642632 40916972 40236984 39601516 39009820 38461240 37954908 
1195.678 37489524 37063224 36673672 36318364 35994816 35700828 35434492 
1199.053 35194128 34978120 34784792 34612304 34458652 34321668 34199168 
1202.428 34088916 33988656 33896188 33809340 33726208 33645056 33564296 
1205.803 33482360 33397430 33307234 33208918 33099228 32974764 32832468 
1209.179 32670036 32486054 32279900 32051512 31801006 31528482 31234026 
1212.554 30917934 30580974 30224594 29850864 29462168 29060838 28648844 
1215.929 28227600 27798138 27361390 26918558 26471266 26021516 25571520 
1219.304 25123292 24678430 24237954 23802390 23371972 22946890 22527448 
1222.680 22114068 21707296 21307646 20915526 20531236 20155036 19787244 
1226.055 19428276 19078630 18738916 18409624 18091204 17783962 17488100 
1229.430 17203740 16930950 16669662 16419613 16180305 15950972 15730718 
1232.805 15518689 15314259 15117230 14927799 14746462 14573795 14410162 
1236.181 14255528 14109333 13970625 13838287 13711251 13588777 13470522 
1239.556 13356526 13247029 13142373 13042668 12947790 12857376 12770861 
1242.931 12687741 12607662 12530619 12456969 12387380 12322679 12263655 
1246.306 12210906 12164695 12124940 12091321 12063422 12040897 12023569 
1249.682 12011467 12004686 12003376 12007454 12016665 12030534 12048560 
1253.057 12070332 12095824 12125342 12159526 12199175 12244987 12297278 
1256.432 12355841 12419922 12488350 12559786 12632978 12706982 12781169 
1259.807 12855244 12929004 13002191 13074377 13144818 13212615 13276799 
1263.183 13336451 13390876 13439532 13482018 13517943 13546832 13568136 
1266.558 13581139 13585031 13578932 13561907 13533039 13491379 13436136 
1269.933 13366704 13282849 13184808 13073243 12949231 12813997 12668702 
1273.308 12514231 12351049 12179228 11998575 11808830 11609954 11402223 
1276.684 11186354 10963431 10734806 10501842 10265840 10027875 9788856 
1280.059 9549581 9310835 9073559 8838903 8608227 8383050 8164987 7955646 
1283.916 7756509 7568933 7394094 7233022 7086500 6955169 6839518 6739936 
1287.774 6656816 6590552 6541525 6509996 6495921 6498747 6517294 6549830 
1291.631 6594108 6647842 6708838 6775390 6846222 6920428 6997212 7075600 
1295.489 7154282 7231615 7305854 7375424 7439195 7496630 7547760 7592924 
1299.346 7632523 7666841 7695970 7719870 7738605 7752449 7761971 7767910 
1303.203 7771042 7771945 7770934 7768085 7763294 7756483 7747653 7736922 
1307.061 7724426 7710253 7694404 7676889 7657823 7637544 7616707 7596125 
1310.918 7576596 7558719 7542679 7528324 7515235 7503023 7491481 7480690 
1314.776 7470936 7462541 7455618 7450072 7445556 7441716 7438362 7435634 
1318.633 7433946 7433808 7435629 7439401 7444750 7450906 7457154 7462963 
1322.490 7468280 7473618 7479874 7488149 7499419 7514444 7533600 7557008 
1326.348 7584582 7616192 7651755 7691256 7734751 7782368 7834294 7890791 
1330.205 7952112 8018489 8090021 8166616 8247909 8333377 8422374 8514315 
1334.063 8608789 8705690 8805136 8907443 9013002 9122127 9235084 9352055 
1337.920 9473170 9598580 9728457 9863058 10002567 10147158 10296930 10451920 
1341.778 10612205 10777921 10949310 11126661 11310283 11500348 11696848 
1345.153 11899491 12107813 12321260 12539224 12761302 12987185 13216662 
1348.528 13449503 13685203 13922875 14161243 14398657 14633279 14863326 
1351.903 15087095 15303122 15510072 15706639 15891391 16062899 16219720 
1355.279 16360641 16484869 16592084 16682503 16756697 16815462 16859776 
1358.654 16890702 16909426 16917354 16916082 16907276 16892570 16873382 
1362.029 16850870 16825824 16798752 16769861 16739015 16705605 16668327 
1365.404 16625123 16573091 16508667 16427962 16327113 16202793 16052650 
1368.780 15875642 15672447 15445706 15200295 14943373 14684303 14434212 
1372.155 14205408 14010607 13862056 13770686 13745379 13792174 13913737 
1375.530 14108847 14372104 14693968 15061243 15457845 15866172 16268568 
1378.905 16648765 16993142 17291070 17534978 17719726 17841920 17899318 
1382.281 17890660 17815754 17675676 17472942 17211424 16896102 16532739 
1385.656 16127595 15687215 15218332 14727615 14221372 13705194 13183565 
1389.031 12659797 12136087 11613885 11094287 10578514 10068107 9565017 
1392.406 9071545 8590248 8123954 7675609 7248296 6845037 6468438 6120433 
1396.264 5801907 5512599 5251135 5015454 4803166 4612069 4440311 4286556 
1400.121 4149701 4028668 3922094 3828216 3744943 3670071 3601588 3537986 
1403.979 3478397 3422523 3370487 3322609 3279078 3239857 3204591 3172719 
1407.836 3143587 3116625 3091503 3068127 3046653 3027441 3010837 2997154 
1411.693 2986523 2978912 2974107 2971878 2971900 2973921 2977690 2982923 
1415.551 2989291 2996418 3003869 3011251 3018307 3024960 3031285 3037487 
1419.408 3043815 3050469 3057671 3065671 3074917 3086126 3100243 3118392 
1423.266 3141569 3170493 3205408 3246110 3292083 3342680 3397414 3456074 
1427.123 3518699 3585467 3656615 3732216 3812293 3896849 3985994 4080106 
1430.980 4179900 4286350 4400661 4524242 4658664 4805658 4967218 5145515 
1434.838 5342958 5561979 5805072 6074787 6373752 6704788 7070943 7475266 
1438.695 7920532 8408678 8940321 9514418 10128116 10777054 11455578 12157221 
1442.553 12874921 13601124 14327791 15046608 15749228 16427737 17075098 
1445.928 17685482 18254138 18777342 19252072 19676082 20048042 20367846 
1449.303 20636768 20857180 21032032 21164106 21255352 21306620 21317808 
1452.678 21288358 21217602 21105086 20950518 20753528 20513538 20229920 
1456.054 19902260 19530940 19117514 18664746 18176352 17656568 17109630 
1459.429 16539720 15950872 15347160 14732747 14111806 13488387 12866215 
1462.804 12248757 11639217 11040904 10457145 9891344 9346633 8825503 8329586 
1466.662 7859574 7415533 6997274 6604761 6238290 5898408 5585612 5299971 
1470.519 5040744 4806217 4593783 4400238 4222151 4056434 3900630 3753296 
1474.376 3614007 3483179 3361814 3251087 3151880 3064477 2988326 2922177 
1478.234 2864188 2812393 2765032 2720780 2678954 2639311 2601931 2566960 
1482.091 2534397 2504087 2475625 2448622 2422614 2397350 2372708 2348718 
1485.949 2325532 2303351 2282403 2262847 2244815 2228241 2212983 2198786 
1489.806 2185409 2172691 2160660 2149559 2139766 2131643 2125391 2120817 
1493.664 2117386 2114207 2110336 2104933 2097545 2088223 2077381 2065776 
1497.521 2054078 2042846 2032356 2022660 2013671 2005349 1997730 1990973 
1501.378 1985263 1980725 1977353 1974985 1973329 1972031 1970768 1969206 
1505.236 1967087 1964190 1960304 1955345 1949334 1942491 1935227 1928077 
1509.093 1921608 1916206 1912069 1909093 1906960 1905264 1903639 1901894 
1512.951 1900059 1898311 1896876 1895926 1895424 1895107 1894470 1892926 
1516.808 1889846 1884735 1877391 1867937 1856847 1845002 1833452 1823252 
1520.666 1815264 1809846 1806798 1805364 1804365 1802655 1799345 1794161 
1524.523 1787390 1779821 1772503 1766323 1761796 1758892 1757140 1755813 
1528.380 1754157 1751673 1748246 1744098 1739708 1735623 1732258 1729788 
1532.238 1728165 1726999 1725843 1724169 1721680 1718277 1714208 1709960 
1536.095 1706157 1703314 1701696 1701174 1701253 1701190 1700258 1697981 
1539.953 1694290 1689507 1684182 1678828 1673696 1668739 1663605 1657945 
1543.810 1651558 1644596 1637483 1630807 1624998 1620194 1616153 1612456 
1547.667 1608651 1604550 1600342 1596451 1593415 1591507 1590661 1590340 
1551.525 1589782 1588307 1585530 1581582 1576978 1572497 1568820 1566365 
1555.382 1565057 1564535 1564154 1563319 1561569 1558757 1554991 1550574 
1559.240 1545963 1541577 1537771 1534744 1532477 1530802 1529379 1527892 
1563.097 1526155 1524172 1522210 1520739 1520216 1520928 1522787 1525400 
1566.955 1528142 1530413 1531824 1532401 1532458 1532529 1533096 1534387 
1570.812 1536295 1538518 1540706 1542617 1544278 1545930 1547908 1550458 
1574.669 1553628 1557232 1560967 1564511 1567635 1570317 1572584 1574461 
1578.527 1575873 1576644 1576514 1575330 1573147 1570197 1566967 1564034 
1582.384 1561899 1560947 1561326 1563004 1565795 1569435 1573578 1577932 
1586.242 1582198 1586213 1589978 1593669 1597659 1602351 1608081 1614915 
1590.099 1622572 1630440 1637703 1643572 1647479 1649307 1649347 1648300 
1593.957 1647036 1646425 1647101 1649445 1653382 1658578 1664460 1670341 
1597.814 1675650 1680007 1683352 1685934 1688283 1691009 1694638 1699497 
1601.671 1705605 1712755 1720667 1729135 1738125 1747830 1758507 1770336 
1605.529 1783239 1796872 1810630 1823885 1836138 1847169 1856988 1865838 
1609.386 1873967 1881498 1888458 1894748 1900384 1905534 1910628 1916213 
1613.244 1922845 1930834 1940175 1950424 1960862 1970614 1978874 1985139 
1617.101 1989209 1991340 1992105 1992323 1992889 1994576 1997936 2003143 
1620.958 2009945 2017724 2025630 2032760 2038495 2042522 2044945 2046167 
1624.816 2046697 2046950 2047158 2047355 2047507 2047569 2047604 2047872 
1628.673 2048590 2049940 2051892 2054229 2056560 2058454 2059546 2059682 
1632.531 2058865 2057312 2055367 2053505 2052333 2052437 2054386 2058512 
1636.388 2064701 2072372 2080423 2087489 2092257 2093857 2092079 2087463 
1640.246 2081194 2074630 2068964 2064835 2062204 2060457 2058725 2056207 
1644.103 2052415 2047342 2041368 2035106 2029103 2023771 2019323 2015787 
1647.960 2013109 2011305 2010421 2010553 2011771 2014152 2017678 2022279 
1651.818 2027886 2034391 2041661 2049516 2057686 2065911 2073877 2081352 
1655.675 2088226 2094517 2100445 2106309 2112452 2119205 2126738 2135067 
1659.533 2144009 2153205 2162215 2170601 2178022 2184363 2189783 2194757 
1663.390 2199910 2205965 2213557 2223094 2234675 2248097 2262885 2278504 
1667.248 2294340 2309891 2324809 2338864 2351999 2364268 2375917 2387282 
1671.105 2398821 2411032 2424408 2439301 2455886 2474048 2493482 2513667 
1674.962 2534012 2553896 2572790 2590243 2605906 2619652 2631487 2641745 
1678.820 2651041 2660290 2670573 2682948 2698174 2716545 2737730 2760883 
1682.677 2784913 2808755 2831753 2853786 2875394 2897532 2921158 2947061 
1686.535 2975525 3006384 3039116 3073103 3107825 3142950 3178427 3214261 
1690.392 3250488 3287122 3324098 3361494 3399587 3438989 3480616 3525537 
1694.250 3574730 3628777 3687770 3751134 3817865 3886765 3956711 4026973 
1698.107 4097441 4168586 4241368 4317140 4397320 4483108 4575246 4673902 
1701.964 4778660 4888883 5003904 5123446 5247856 5378024 5515232 5660773 
1705.822 5815466 5979413 6151948 6331936 6518175 6709892 6907056 7110509 
1709.679 7321623 7542065 7773264 8016268 8271574 8539258 8819099 9110732 
1713.537 9413573 9726911 10049788 10381015 10719399 11063876 11413724 
1716.912 11768538 12128182 12492556 12861405 13234377 13611268 13992326 
1720.287 14378703 14772514 15176712 15594667 16029653 16484484 16961356 
1723.662 17462140 17988732 18543490 19129420 19750164 20409756 21112394 
1727.038 21862454 22664324 23522628 24442244 25428230 26485530 27618926 
1730.413 28833118 30133152 31524956 33015880 34614564 36330164 38170956 
1733.788 40142852 42248344 44486608 46854644 49348940 51967008 54707528 
1737.163 57569224 60548504 63637012 66819840 70075416 73376952 76694648 
1740.539 79997680 83255128 86435592 89506672 92434736 95186568 97731720 
1743.914 100045272 102109208 103912424 105449008 106716744 107716000 
1746.807 108450080 108925816 109153760 109147016 108919528 108483944 
1749.700 107851168 107030848 106033312 104870904 103558552 102111992 
1752.593 100545784 98871104 97095392 95223232 93258904 91208568 89081480 
1755.968 86889568 84646296 82364872 80057432 77734800 75407568 73086736 
1759.344 70784160 68512088 66282268 64104696 61987316 59935992 57955224 
1762.719 56048672 54219528 52470232 50801848 49213472 47702176 46263568 
1766.094 44892664 43585104 42337900 41149320 40018384 38943732 37922776 
1769.469 36951116 36022900 35131472 34270332 33433840 32617658 31818452 
1772.844 31033594 30260498 29496398 28738188 27982854 27227568 26470304 
1776.220 25709664 24945114 24176578 23404418 22629352 21852514 21075598 
1779.595 20300862 19531048 18769080 18017552 17278510 16553207 15842369 
1782.970 15146701 14467297 13806143 13166149 12550597 11962722 11404829 
1786.345 10877947 10381811 9915212 9476455 9064109 8677148 8315074 7977599 
1790.203 7664341 7374605 7107133 6860264 6632112 6420792 6224546 6041944 
1794.060 5871675 5712721 5564148 5425093 5294781 5172373 5056987 4947702 
1797.918 4843649 4744069 4648480 4556808 4469333 4386585 4309153 4237327 
1801.775 4171084 4109827 4052689 3998605 3946718 3896377 3847362 3799627 
1805.633 3753194 3707951 3663569 3619560 3575445 3530938 3486202 3441755 
1809.490 3398406 3356910 3317737 3280639 3244734 3208526 3170348 3128854 
1813.347 3083588 3035226 2985750 2938015 2895375 2860752 2836038 2821518 
1817.205 2815840 2816062 2818483 2819292 2815555 2805500 2788881 2766666 
1821.062 2740653 2712830 2684940 2657938 2632023 2606423 2579899 2551041 
1824.920 2518896 2483134 2444611 2404970 2366527 2331536 2301666 2277514 
1828.777 2258600 2243284 2229465 2214986 2198251 2178293 2154963 2128622 
1832.635 2100050 2070108 2039806 2010080 1982019 1956621 1934688 1916525 
1836.492 1901853 1889712 1878664 1867087 1853630 1837437 1818508 1797547 
1840.349 1775845 1754916 1736196 1720550 1708167 1698317 1689504 1679683 
1844.207 1666827 1649454 1627203 1600905 1572586 1544761 1519838 1499183 
1848.064 1482819 1469344 1456544 1441949 1423805 1401457 1375473 1347231 
1851.922 1318586 1291121 1266245 1244775 1227410 1214592 1206717 1203755 
1855.779 1205241 1210062 1216665 1223297 1228595 1231658 1232340 1230896 
1859.636 1227681 1222856 1216332 1207866 1197592 1186038 1174535 1164669 
1863.494 1158162 1156018 1158573 1164978 1173920 1183457 1191745 1196955 
1867.351 1197522 1192078 1179792 1160359 1134690 1104784 1073868 1045667 
1871.209 1023815 1010734 1007365 1012688 1024248 1038619 1052434 1062899 
1875.066 1068315 1068274 1063473 1055602 1047004 1040077 1036973 1038909 
1878.924 1045923 1056435 1067843 1076955 1080899 1077791 1067176 1049817 
1882.781 1027360 1001487 973771 945533 918249 893765 874504 862860 860737 
1887.121 868217 883654 903466 923381 939512 949701 953764 953354 950536 
1891.460 946962 942828 937227 928579 916045 900176 883179 867965 857183 
1895.800 851904 851461 853411 855044 854137 850033 843372 835665 828280 
1900.139 821686 815140 807408 797154 783995 768585 752641 738170 727269 
1904.479 721445 721888 729440 744756 767930 798293 833705 870754 904782 
1908.819 931274 946608 949504 940781 923591 901935 879805 859930 843673 
1913.158 830741 820281 810798 801362 791372 780871 770008 759198 748429 
1917.498 737554 725661 711540 693483 670312 641456 608007 572554 539163 
1921.837 511892 494124 486865 488962 496810 506261 513606 517328 517785 
1926.177 517164 517512 520205 524171 526829 524299 513272 491359 457976 
1930.517 413919 361175 302427 241501 183380 134783 103018 95236 115821 
1934.856 164999 237299 322574 407584 479460 528001 548170 539748 506822 
1939.196 455118 391106 320406 248306 179602 119623 73393 45104 36394 45816 
1944.018 68392 97333 125361 147466 161952 171058 179193 191511 211160 238287 
1948.839 269102 297734 317349 323369 314269 293124 266349 242378 228197 
1953.179 228260 241948 264911 289465 308141 315104 308625 289790 262604 
1957.519 230276 195467 158334 118905 78162 40946 14719 9245 31640 83983 
1962.340 159564 244856 321087 370595 380072 345053 268818 161562 36032 
1966.680 -94867 -220586 -332195 -423335 -487811 -521870 -523023 -494465 
1970.537 -442348 -377899 -312784 -257926 -218938 -196983 -186796 -180022 
1974.395 -165050 -130477 -63657 44592 200985 404145 644466 900787 1145605 
1978.734 1349139 1488984 1553313 1545381 1478488 1374084 1253765 1137024 
1982.592 1037636 964237 920200 905642 917252 949487 992602 1033995 1058575 
1986.931 1052354 1005037 914345 786074 634987 479630 339779 230463 160364 
1991.271 128992 129493 149987 177475 200311 211139 206673 189090 163317 
1995.611 137326 118118 111861 120932 144790 179267 218985 256441 285085 
1999.950 297633 288095 249761 178148 71058 -68637 -232714 -406168 -570667 
2004.290 -705911 -795456 -828729 -804214 -728313 -614216 -476961 -332232 
2008.147 -192830 -69923 27296 90526 114318 96844 43187 -35302 -120682 
2012.487 -193546 -236079 -237060 -193605 -113202 -10427 93761 176926 215896 
2016.826 192291 94326 -78364 -313301 -583867 -853465 -1080225 -1227756 
2020.684 -1272251 -1210412 -1059063 -852452 -631250 -433510 -284283 -193220 
2024.541 -152771 -145962 -151464 -151928 -137070 -106400 -65409 -24534 7103 
2028.881 23134 23078 10209 -8334 -26634 -39712 -48610 -56407 -69416 -91798 
2033.703 -124487 -161955 -194980 -211199 -201411 -160789 -92429 -3894 92806 
2038.042 186809 269087 334973 382179 411497 424622 425864 420453 416351 
2042.382 421100 440849 475748 519150 557345 574978 559449 509195 435221 
2046.721 361232 315719 323392 394356 519951 673149 818519 922800 966730 
2051.061 948053 881030 789289 698633 629001 590390 580863 589290 599407 
2055.401 596847 572729 526665 465189 399762 341737 300499 279670 277928 
2059.740 289084 305417 319144 325641 323715 316029 306618 299920 298378 
2064.080 301776 307337 311480 311038 305410 296379 288423 286421 294757 
2068.419 315132 347033 387395 432665 479427 526070 572192 618822 666280 
2072.759 714020 758973 796636 820897 826527 810414 773408 720459 660681 
2077.099 605094 564925 548167 558431 593458 646764 708981 771207 826373 
2081.438 871514 906288 932482 951359 962922 965106 955313 931573 894673 
2085.778 848284 798878 753304 717085 692058 676421 665004 651980 632238 
2090.117 603692 567301 526859 487224 453677 430032 419353 422989 441797 
2094.457 475236 521562 577035 636414 692912 740253 773405 790429 792055 
2098.797 781758 763370 740418 714158 684002 647763 603537 550560 490879 
2103.136 428907 371245 324934 296601 290645 308727 349114 407012 474783 
2107.476 543295 602700 644849 664139 659595 634775 597703 558898 529238 
2111.815 517044 526777 557317 603477 656741 707858 748189 771227 772816 
2116.155 751253 706969 642799 563537 476541 390715 315878 260136 228467 
2120.495 220117 228726 243076 250322 239105 203652 145125 71719 -4539 -70999 
2125.316 -119236 -147065 -159801 -167806 -183736 -217866 -276228 -358357 
2129.174 -459139 -570208 -683177 -791286 -890794 -979730 -1057100 -1120591 
2133.031 -1166253 -1187902 -1179507 -1136548 -1059597 -955408 -838073 
2136.406 -726808 -642968 -604875 -624467 -702605 -829060 -983045 -1138574 
2140.264 -1269393 -1356109 -1390087 -1375873 -1328629 -1270928 -1225190 
2143.639 -1210366 -1236678 -1306235 -1413132 -1546619 -1692663 -1836850 
2147.014 -1965440 -2067074 -2134073 -2165466 -2167051 -2153014 -2141962 
2150.390 -2154335 -2204937 -2299784 -2432679 -2588220 -2746290 -2890415 
2153.765 -3012981 -3118979 -3222270 -3340841 -3484651 -3649938 -3812609 
2157.140 -3932297 -3960269 -3856882 -3606132 -3229133 -2778764 -2326356 
2160.515 -1936703 -1653554 -1488761 -1429124 -1442574 -1492197 -1543022 
2163.891 -1571439 -1565964 -1528890 -1470372 -1405556 -1346716 -1302533 
2167.266 -1274158 -1258795 -1250703 -1245330 -1240457 -1238392 -1243414 
2170.641 -1261440 -1295883 -1347367 -1411453 -1480194 -1542860 -1588887 
2174.016 -1608552 -1596973 -1553757 -1484868 -1400840 -1315641 -1243054 
2177.392 -1193512 -1170901 -1172272 -1187425 -1202953 -1206015 -1189555 
2180.767 -1154121 -1109387 -1068514 -1044684 -1043477 -1059924 -1078244 
2184.142 -1077687 -1038514 -950085 -813932 -645385 -467713 -306198 -180181 
2188.000 -99749 -63381 -61641 -80827 -109259 -139057 -167758 -196296 -226815 
2192.339 -259853 -293950 -325646 -351973 -371359 -385593 -398767 -416609 
2196.197 -443401 -481183 -527655 -577511 -622154 -652675 -660459 -640800 
2200.054 -592374 -519314 -429573 -334903 -247163 -176656 -128920 -103931 
2203.911 -94755 -90741 -78659 -47862 7791 87204 182533 280228 365251 423398 
2208.733 445640 429185 378719 304526 220813 141833 79970 42452 31410 43241 
2213.555 71129 106645 142535 173498 197078 212292 219485 218016 207925 
2217.895 189561 165877 142475 128354 132830 164076 224635 310513 410372 
2222.234 509113 590383 642432 660203 646962 612329 569195 529236 500247 
2226.574 483998 477703 475107 470544 460014 443427 423726 405973 395234 
2230.913 394963 405442 424482 447197 468417 483755 491313 492230 490222 
2235.253 490209 497187 514111 541754 578527 621986 669097 717961 766946 
2239.593 814428 857190 890647 908315 904223 874386 819638 745664 663250 
2243.932 584760 521991 482651 469186 478080 502381 533389 563770 588395 
2248.272 605497 615778 621715 626034 631458 639647 651332 665591 680572 
2252.611 693247 700598 700447 693061 681248 670937 669372 683432 717161 
2256.951 770373 837773 910435 977302 1028457 1056821 1060422 1042429 1010466 
2261.291 974430 944573 928611 930890 951075 985355 1027726 1072212 1114300 
2265.630 1152178 1186074 1217556 1247174 1274050 1295052 1306149 1303943 
2269.488 1287406 1258622 1222613 1185750 1154055 1131538 1120028 1119413 
2273.345 1129242 1149266 1180366 1223088 1276888 1338565 1402510 1461508 
2277.202 1509035 1540968 1557434 1561951 1560716 1559896 1564155 1575410 
2281.060 1593521 1616837 1643881 1673496 1705103 1737726 1769842 1798859 
2284.917 1822168 1837839 1845634 1846980 1844522 1840687 1836890 1832651 
2288.775 1826449 1816273 1801205 1781666 1759544 1737177 1716382 1697537 
2292.632 1679792 1661502 1641493 1619741 1597683 1577591 1561620 1550791 
2296.490 1544501 1540776 1537257 1531889 1523975 1514056 1503855 1495352 
2300.347 1490312 1489781 1494086 1502776 1515047 1529471 1544360 1557761 
2304.204 1567966 1573786 1575310 1573676 1570986 1569545 1571185 1576453 
2308.062 1584691 1594456 1604319 1613432 1622123 1631541 1643026 1657304 
2311.919 1674153 1692079 1708978 1722776 1732190 1737013 1738155 1737191 
2315.777 1735859 1735611 1737362 1741504 1748188 1757680 1770789 1789138 
2319.634 1815298 1852312 1902853 1967640 2044230 2125883 2201924 2259068 
2323.491 2284558 2269037 2209381 2109478 1979726 1834736 1690279 1560123 
2327.349 1453508 1373994 1319836 1285556 1264377 1250367 1239754 1231075 
2331.206 1224434 1220418 1219239 1220352 1222764 1225497 1228083 1230529 
2335.064 1233211 1236348 1239800 1242892 1244732 1244558 1242180 1237863 
2338.921 1232369 1226472 1220699 1215222 1209876 1204293 1198291 1191769 
2342.779 1184892 1177964 1171349 1165493 1160743 1157343 1155451 1154973 
2346.636 1155611 1156777 1158006 1158967 1159717 1160601 1162114 1164463 
2350.493 1167247 1169448 1169617 1166215 1158437 1146328 1131030 1114262 
2354.351 1097994 1083740 1072401 1064189 1058861 1056001 1055128 1055486 
2358.208 1056073 1055357 1051482 1042669 1027874 1007143 981938 954469 
2362.066 927344 902498 880821 862086 845440 830100 816044 804117 795835 
2366.405 792663 795354 803349 814994 828021 840288 850463 858355 864699 
2370.745 870650 877086 884381 892188 899823 906407 911598 915378 918342 
2375.084 921140 924615 929362 935756 943926 953800 964991 976896 988609 
2379.424 999109 1007457 1013076 1015847 1016228 1015023 1013132 1011153 
2383.281 1009220 1006968 1003813 999062 992522 984447 975755 967699 961636 
2387.621 958700 959557 964279 972336 982730 994384 1006021 1016655 1025582 
2391.961 1032488 1037388 1040736 1043220 1045697 1048993 1053701 1059926 
2395.818 1067333 1075040 1082004 1087134 1089857 1090076 1088320 1085398 
2399.676 1081977 1078185 1073491 1066883 1057491 1045098 1030844 1017213 
2403.533 1007487 1005019 1011953 1028458 1052612 1080574 1107902 1130565 
2407.390 1146031 1153488 1153848 1148794 1140017 1128743 1115715 1101489 
2411.248 1087017 1073969 1064568 1060945 1064250 1073859 1087294 1100535 
2415.105 1109504 1111222 1105134 1093315 1080053 1070226 1067898 1074563 
2418.963 1089037 1107544 1125431 1138592 1144973 1144990 1141195 1136984 
2422.820 1135401 1137818 1143817 1151490 1158380 1162331 1162050 1157136 
2426.677 1147710 1133890 1115808 1093705 1068624 1042409 1017937 998362 
2430.535 986009 981376 982977 987654 991990 993505 992115 989878 990342 
2434.875 996850 1011123 1032257 1057179 1081610 1101724 1115385 1122569 
2438.732 1124906 1124663 1123627 1122550 1121326 1119553 1117297 1115358 
2442.589 1114875 1117002 1121804 1128343 1134689 1138810 1139436 1136491 
2446.447 1130890 1124189 1117584 1111698 1106073 1100159 1093627 1086880 
2450.304 1081173 1078178 1079301 1085151 1095362 1108756 1123717 1138571 
2454.162 1151649 1161405 1166304 1165060 1157087 1142999 1124949 1106476 
2458.019 1091479 1083201 1082887 1089339 1099137 1107878 1111646 1108369 
2461.876 1098252 1083508 1067153 1051948 1039459 1030091 1023400 1018908 
2465.734 1016658 1017195 1021222 1029089 1040294 1053710 1067727 1081173 
2469.591 1093138 1103232 1110807 1114912 1113872 1106038 1090537 1068329 
2473.449 1042336 1017340 998289 989190 991435 1003526 1021562 1040635 
2477.306 1056419 1066424 1070405 1069891 1067113 1064300 1062524 1061959 
2481.164 1061949 1061632 1060327 1057700 1053719 1048505 1042360 1035830 
2485.021 1029680 1025067 1023062 1024599 1029764 1037951 1047699 1057443 
2488.878 1065650 1071696 1075553 1077986 1079545 1080855 1081814 1082115 
2492.736 1081149 1078630 1074490 1069165 1062969 1056438 1049854 1043811 
2496.593 1038901 1036137 1036604 1041057 1049374 1060379 1071781 1080855 
2500.451 1085105 1083448 1076258 1065691 1054703 1046257 1042171 1042765 
2504.308 1046794 1052266 1057263 1060946 1063548 1066386 1071029 1078283 
2508.166 1087698 1097562 1105347 1108903 1107192 1101010 1092641 1085270 
2512.023 1081460 1082399 1087089 1092942 1096534 1095002 1087132 1074076 
2515.880 1058752 1045048 1036468 1034966 1040571 1051409 1064604 1077240 
2519.738 1087168 1093313 1095699 1094972 1091957 1087398 1081764 1075639 
2523.595 1069597 1064397 1060757 1059355 1060157 1062928 1066774 1070892 
2527.453 1074479 1077204 1079161 1081008 1083711 1088540 1096545 1108756 
2531.310 1125353 1145612 1167688 1188665 1205132 1214180 1214037 1205056 
2535.167 1189559 1171392 1154614 1142570 1136605 1135997 1138498 1141459 
2539.025 1142892 1142505 1141344 1141484 1144602 1151243 1160244 1169088 
2542.882 1174912 1175603 1170621 1161378 1150684 1141708 1136879 1137316 
2546.740 1142263 1149753 1157238 1162439 1163991 1161633 1156108 1148839 
2550.597 1141363 1135294 1131853 1131896 1135861 1143579 1154284 1166755 
2554.455 1179352 1190509 1199009 1204475 1207271 1208312 1208737 1209350 
2558.312 1210272 1211015 1210745 1208813 1205371 1201447 1198774 1199428 
2562.169 1204725 1214711 1228119 1242453 1254705 1262461 1264537 1261414 
2566.027 1254746 1247183 1241242 1238843 1240899 1247320 1257306 1269785 
2569.884 1283510 1297208 1309628 1319520 1325751 1327552 1324903 1318577 
2573.742 1310274 1302123 1296291 1294488 1297476 1305068 1316342 1329963 
2577.599 1344481 1358669 1371575 1382575 1391167 1397139 1400560 1401878 
2581.457 1401846 1401424 1401546 1402822 1405233 1408287 1411203 1413227 
2585.314 1414028 1413962 1413775 1414602 1417184 1421720 1427656 1433750 
2589.171 1438571 1441133 1441036 1439035 1436572 1435544 1437525 1443421 
2593.029 1452984 1465092 1477947 1489771 1499292 1505889 1509812 1511819 
2596.886 1512605 1512781 1512495 1511676 1510159 1508005 1505578 1503395 
2600.744 1501797 1500774 1499855 1498324 1495605 1491705 1487505 1484503 
2604.601 1484437 1488358 1496410 1507510 1519614 1530549 1538775 1543982 
2608.458 1546992 1549399 1552735 1557765 1564208 1570751 1575866 1578307 
2612.316 1577781 1575062 1571569 1568882 1568056 1569364 1572439 1576454 
2616.173 1580744 1585000 1589302 1594063 1599502 1605789 1612738 1620193 
2620.031 1628011 1636475 1645868 1656543 1668360 1680764 1692565 1702502 
2623.888 1709477 1712995 1713443 1711824 1709585 1708124 1708499 1711031 
2627.746 1715632 1721648 1728357 1735015 1740995 1745924 1749748 1752512 
2631.603 1754471 1756130 1757931 1760361 1763493 1767077 1770485 1772946 
2635.460 1773785 1772735 1770229 1767234 1765197 1765440 1768843 1775426 
2639.318 1784286 1793851 1802460 1808576 1811439 1811103 1808214 1803875 
2643.175 1799062 1794417 1790197 1786305 1782625 1779211 1776321 1774436 
2647.033 1773914 1774833 1776840 1779187 1781017 1781529 1780319 1777442 
2650.890 1773287 1768356 1762976 1757381 1751471 1745167 1738468 1731526 
2654.748 1724599 1717947 1711597 1705280 1698479 1690595 1681181 1670147 
2658.605 1657626 1644012 1629599 1614449 1598421 1581164 1562491 1542519 
2662.462 1521809 1501302 1482114 1465210 1451127 1439919 1431167 1424263 
2666.320 1418422 1413025 1407628 1402120 1396504 1391091 1386340 1382866 
2670.177 1381236 1381736 1384278 1388201 1392465 1395800 1397190 1396231 
2674.035 1393264 1389417 1386062 1384518 1385413 1388660 1393335 1398066 
2677.892 1401461 1402423 1400420 1395489 1388030 1378736 1368379 1357839 
2681.750 1348079 1340032 1334537 1332043 1332552 1335257 1338879 1341838 
2685.607 1342673 1340483 1335159 1327457 1318680 1310432 1304011 1300272 
2689.464 1299333 1300693 1303468 1306676 1309436 1311248 1311943 1311745 
2693.322 1311024 1310157 1309417 1308829 1308188 1307256 1305693 1303442 
2697.179 1300575 1297301 1293990 1290885 1288196 1285893 1283925 1282237 
2701.037 1280683 1279184 1277684 1275920 1273676 1270662 1266831 1262402 
2704.894 1257944 1254272 1252104 1251874 1253320 1255683 1257802 1258516 
2708.751 1257125 1253620 1248689 1243603 1239494 1237364 1237439 1239420 
2712.609 1242502 1245739 1248395 1249944 1250329 1249670 1248219 1246421 
2716.466 1244532 1242815 1241489 1240545 1239873 1239091 1237763 1235570 
2720.324 1232346 1228401 1224429 1221311 1219869 1220641 1223637 1228322 
2724.181 1233911 1239493 1244393 1248273 1251168 1253252 1254843 1256198 
2728.039 1257562 1259191 1261387 1264599 1269064 1274793 1281302 1287584 
2731.896 1292405 1294555 1293282 1288658 1281643 1273810 1266974 1262599 
2735.753 1261439 1263374 1267629 1273050 1278564 1283558 1287976 1292083 
2739.611 1296293 1300734 1305066 1308565 1310282 1309402 1305654 1299387 
2743.468 1291612 1283669 1276993 1272602 1270941 1271882 1274726 1278482 
2747.326 1282194 1285032 1286464 1286413 1285083 1282951 1280587 1278527 
2751.183 1277038 1276119 1275356 1274059 1271526 1267304 1261467 1254734 
2755.041 1248460 1244066 1242881 1245350 1250903 1257963 1264287 1267491 
2758.898 1265846 1258584 1246302 1230682 1214115 1199014 1187496 1180780 
2762.755 1179240 1182422 1189351 1198846 1209705 1220928 1231704 1241465 
2766.613 1249841 1256618 1261748 1265341 1267675 1269101 1270036 1270703 
2770.470 1271147 1271164 1270281 1268107 1264327 1259097 1252984 1247054 
2774.328 1242497 1240298 1240867 1243879 1248352 1252919 1256279 1257706 
2778.185 1257171 1255315 1253179 1251712 1251417 1252295 1253909 1255709 
2782.042 1257473 1259414 1262120 1266383 1272708 1281180 1291268 1302107 
2785.900 1312726 1322399 1330702 1337553 1342753 1346077 1347216 1345804 
2789.757 1341822 1335922 1329384 1323976 1321362 1322685 1328021 1336511 
2793.615 1346588 1356537 1365263 1372411 1378559 1384699 1391705 1399903 
2797.472 1408846 1417539 1424912 1430375 1433962 1436556 1439319 1443267 
2801.330 1448690 1455046 1461057 1465359 1467021 1465966 1463228 1460423 
2805.187 1459254 1460841 1465279 1471629 1478368 1483942 1487502 1489143 
2809.044 1489992 1491585 1495366 1502165 1511711 1522920 1534284 1544399 
2812.902 1552582 1558891 1564257 1569852 1576743 1585536 1596204 1608125 
2816.759 1620344 1631934 1642214 1650861 1657902 1663620 1668554 1673273 
2820.617 1678400 1684429 1691712 1700372 1710259 1720975 1732190 1743475 
2824.474 1754812 1766306 1778299 1791076 1804894 1819679 1835268 1851455 
2828.332 1868134 1885411 1903572 1922771 1943084 1964160 1985503 2006476 
2832.189 2026553 2045696 2064189 2082729 2101965 2122473 2144385 2167591 
2836.046 2191697 2216429 2241662 2267522 2294401 2322799 2353054 2385532 
2839.904 2420285 2457420 2496884 2538699 2582975 2629830 2679653 2733203 
2843.761 2791602 2856375 2929048 3010809 3101653 3199967 3302285 3403306 
2847.619 3496737 3576057 3635636 3671709 3682766 3669634 3635101 3583307 
2851.476 3518870 3446314 3369648 3292112 3216064 3143159 3074443 3010508 
2855.333 2951643 2897814 2848830 2804256 2763612 2726201 2691391 2658524 
2859.191 2627078 2596703 2567293 2538924 2511887 2486714 2464120 2445062 
2863.048 2430597 2421757 2419214 2423163 2432940 2447176 2464138 2481981 
2866.906 2499502 2516304 2533124 2551571 2573501 2600596 2633794 2673075 
2870.763 2717533 2765941 2816845 2869267 2922722 2977075 3032464 3088970 
2874.621 3146360 3204274 3262076 3319112 3374665 3428007 3478361 3524827 
2878.478 3566477 3602344 3631710 3654020 3669126 3677180 3678563 3673829 
2882.335 3663716 3649055 3630871 3610265 3588504 3566779 3546173 3527470 
2886.193 3511085 3497213 3485778 3476435 3468831 3462385 3456587 3451012 
2890.050 3445526 3440392 3436408 3434775 3436835 3443801 3456354 3474551 
2893.908 3497605 3524281 3553033 3582373 3611077 3638365 3663721 3687004 
2897.765 3708291 3727819 3746099 3763763 3781565 3800197 3820153 3841697 
2901.623 3864726 3888978 3914084 3939918 3966441 3993762 4022121 4051688 
2905.480 4082533 4114739 4148525 4184312 4222721 4264611 4310876 4362369 
2909.337 4419828 4483846 4554962 4633745 4720500 4815379 4918034 5027503 
2913.195 5142268 5260402 5379793 5498296 5613988 5724871 5828975 5924003 
2917.052 6007569 6077362 6131901 6170735 6194917 6206698 6209237 6205648 
2920.910 6198543 6189392 6178462 6165372 6149372 6130117 6107728 6082946 
2924.767 6056870 6030659 6005380 5981946 5961184 5943953 5931181 5923731 
2928.625 5922236 5926953 5937620 5953815 5975085 6001342 6032999 6070910 
2932.482 6116111 6169533 6231739 6302860 6382824 6471680 6569841 6678316 
2936.339 6798502 6931609 7078308 7238295 7409785 7589795 7774298 7958790 
2940.197 8138810 8310424 8470472 8616674 8747636 8862458 8960810 9042370 
2944.054 9106745 9153543 9182128 9191905 9182429 9153540 9105586 9039441 
2947.912 8956498 8858517 8747556 8625703 8495007 8357344 8214258 8067134 
2951.769 7917128 7765399 7613086 7461521 7312125 7166297 7025302 6890090 
2955.626 6761027 6638231 6521471 6410631 6305759 6207326 6116032 6032439 
2959.484 5956822 5888648 5826699 5769172 5714011 5659534 5604631 5548946 
2963.341 5492847 5437175 5382830 5330691 5281486 5235762 5193929 5156228 
2967.199 5122813 5093436 5067555 5044340 5022962 5002727 4983471 4965560 
2971.056 4949876 4937310 4928719 4924352 4924096 4927351 4933525 4942239 
2974.914 4953589 4968149 4986845 5010696 5040484 5076845 5119939 5169685 
2978.771 5225672 5287356 5354202 5425715 5501700 5582590 5669396 5763828 
2982.628 5867984 5984045 6113737 6257999 6416689 6588725 6772440 6965890 
2986.486 7167205 7374843 7587517 7803884 8022563 8241730 8459240 8672586 
2990.343 8879057 9075888 9260228 9429494 9581197 9713469 9825197 9916113 
2994.201 9986753 10038385 10072175 10089024 10089105 10071793 10036093 
2997.576 9981132 9906785 9814034 9704874 9582158 9448650 9306833 9158240 
3001.433 9003685 8843435 8677581 8506629 8331428 8153325 7973771 7794156 
3005.291 7615630 7439045 7264919 7093621 6925376 6760170 6597619 6437102 
3009.148 6277708 6118449 5958874 5799019 5639767 5482616 5329380 5181756 
3013.006 5040946 4907303 4780434 4659228 4542284 4428209 4315892 4204718 
3016.863 4094750 3986520 3881115 3779746 3683577 3593330 3509055 3430077 
3020.720 3354984 3282065 3209892 3137633 3065607 2995114 2928110 2866659 
3024.578 2812127 2764704 2723220 2685490 2648782 2610631 2569502 2525081 
3028.435 2478482 2431435 2386221 2344706 2308208 2277052 2250838 2228545 
3032.293 2208812 2190180 2171339 2151188 2129174 2105205 2079711 2053785 
3036.150 2028662 2005692 1985712 1969109 1955343 1943362 1931787 1919382 
3040.008 1905492 1890046 1873728 1857602 1842708 1829754 1818974 1809979 
3043.865 1802036 1794234 1785827 1776251 1765323 1753135 1740013 1726407 
3047.722 1712952 1700128 1688478 1678360 1670020 1663489 1658706 1655590 
3051.580 1653989 1653759 1654819 1656893 1659449 1661740 1662740 1661578 
3055.437 1657545 1650559 1641264 1630838 1620872 1612913 1608121 1606969 
3059.295 1609141 1613520 1618690 1622918 1624714 1622967 1617184 1607353 
3063.152 1594170 1578592 1561932 1545577 1530780 1518723 1510352 1506387 
3067.010 1507343 1513449 1524349 1539222 1556592 1574380 1590416 1602814 
3070.867 1610419 1613205 1612325 1609725 1607473 1607117 1609060 1612508 
3074.724 1615597 1616046 1611936 1602276 1587322 1568424 1547717 1527585 
3078.582 1510090 1496667 1488091 1484299 1484655 1487902 1492471 1496690 
3082.439 1499082 1498666 1495182 1489278 1482081 1475048 1469357 1465545 
3086.297 1463458 1462456 1461734 1460793 1459594 1458591 1458249 1458725 
3090.154 1459677 1460185 1459129 1455753 1450087 1443063 1436317 1431641 
3094.011 1430310 1432719 1438208 1445325 1452570 1458521 1462503 1464359 
3097.869 1464286 1462428 1458764 1452960 1444798 1434402 1422383 1410009 
3101.726 1398847 1390320 1385364 1384167 1386148 1390322 1395340 1400140 
3105.584 1403862 1405983 1406201 1404349 1400583 1395223 1388967 1382907 
3109.441 1378199 1375987 1376971 1381100 1387573 1394861 1401141 1404567 
3113.299 1403951 1398905 1390020 1378798 1367355 1357911 1352500 1352396 
3117.156 1358019 1368684 1382881 1398482 1413118 1424721 1431930 1434220 
3121.013 1432038 1426584 1419571 1412713 1407275 1403969 1402564 1402049 
3124.871 1401062 1398067 1391889 1382225 1369608 1355398 1341561 1330076 
3128.728 1322504 1319588 1321289 1326624 1334286 1342768 1350865 1357655 
3132.586 1362550 1365224 1365465 1363179 1358417 1351534 1343234 1334479 
3136.443 1326384 1319976 1315886 1314126 1314422 1316073 1318449 1321278 
3140.301 1324590 1328839 1334634 1342355 1352171 1363536 1375422 1386343 
3144.158 1394828 1399494 1399561 1394996 1386427 1375045 1362312 1349419 
3148.015 1337207 1325878 1315325 1305297 1295951 1287910 1282385 1280716 
3151.873 1283968 1292251 1304608 1319005 1332933 1343943 1350524 1352135 
3155.730 1349459 1343783 1336521 1328846 1321538 1314958 1309485 1305648 
3159.588 1304093 1305497 1310020 1317167 1325850 1334546 1341765 1346594 
3163.445 1349011 1349682 1349486 1349236 1349103 1348662 1346982 1343150 
3167.302 1336742 1328044 1318008 1308160 1300218 1295646 1295578 1300547 
3171.160 1310460 1324504 1341324 1358947 1375176 1387885 1395532 1397614 
3175.017 1394660 1388134 1379916 1371877 1365292 1360842 1358646 1358586 
3178.875 1360579 1364690 1370866 1378715 1387322 1395092 1400393 1401937 
3182.732 1399444 1393786 1386954 1381218 1378379 1379089 1382613 1387077 
3186.590 1390379 1390792 1387920 1382625 1376720 1372393 1371213 1373822 
3190.447 1379741 1387542 1395527 1402233 1406718 1408769 1408704 1406982 
3194.304 1404201 1400553 1396112 1390900 1384896 1378462 1372154 1366980 
3198.162 1364050 1364352 1368540 1376572 1387799 1400850 1414014 1425532 
3202.019 1433957 1438494 1439043 1436107 1430756 1424214 1417724 1412348 
3205.877 1408912 1407954 1409593 1413573 1419251 1425660 1431696 1436294 
3209.734 1438788 1438950 1437124 1433954 1430170 1426331 1422610 1418736 
3213.592 1414281 1408825 1402194 1394604 1386710 1379332 1373361 1369487 
3217.449 1368078 1369112 1372311 1377051 1382632 1388377 1393758 1398525 
3221.306 1402713 1406578 1410552 1414851 1419636 1424607 1429396 1433517 
3225.164 1436862 1439571 1442151 1445164 1448999 1453440 1457732 1460630 
3229.021 1460848 1457455 1450352 1440198 1428506 1416898 1406942 1399699 
3232.879 1395797 1395205 1397869 1403619 1412185 1423115 1435566 1448216 
3236.736 1459386 1467309 1470714 1469199 1463411 1454856 1445507 1437187 
3240.594 1431197 1427873 1427033 1428016 1430432 1434063 1439129 1445793 
3244.451 1453795 1462169 1469221 1472895 1471494 1464245 1451928 1436707 
3248.308 1421851 1410527 1405104 1406411 1413417 1423461 1433237 1439566 
3252.166 1440335 1435040 1424670 1411346 1397824 1386598 1379506 1377434 
3256.023 1380242 1387027 1396255 1406196 1415082 1421311 1423790 1421993 
3259.881 1416051 1406976 1396174 1385469 1376430 1370075 1366588 1365273 
3263.738 1364765 1363568 1360690 1355998 1350485 1346107 1345017 1349040 
3267.595 1358715 1373029 1389525 1404901 1415995 1420712 1418721 1411520 
3271.453 1401887 1392953 1387169 1385556 1387676 1391879 1396148 1399093 
3275.310 1400285 1400415 1400906 1403140 1407942 1415146 1423779 1432602 
3279.168 1440330 1446393 1450591 1453077 1454004 1453152 1449906 1443669 
3283.025 1434059 1421512 1407072 1392476 1379603 1369925 1364311 1362808 
3286.883 1364844 1369563 1375967 1383210 1390476 1396920 1401626 1403692 
3290.740 1402389 1397551 1389585 1379733 1369757 1361399 1356222 1355000 
3294.597 1357699 1363420 1370707 1377953 1383713 1387114 1387979 1386869 
3298.455 1384953 1383456 1383625 1385979 1390290 1395694 1400702 1403923 
3302.312 1404404 1401858 1396835 1390374 1383558 1377049 1371003 1364812 
3306.170 1358078 1350457 1342392 1335022 1329984 1328739 1332208 1340183 
3310.027 1351603 1364577 1377235 1388004 1396073 1401329 1404282 1405517 
3313.885 1405600 1404928 1403780 1402442 1401415 1401308 1402732 1406077 
3317.742 1411188 1417399 1423713 1429006 1432491 1433943 1433684 1432448 
3321.599 1431133 1430318 1430081 1430033 1429551 1428001 1425204 1421484 
3325.457 1417640 1414641 1413188 1413415 1414555 1415172 1413606 1408365 
3329.314 1398778 1385236 1369173 1352851 1338654 1328598 1323910 1324781 
3333.172 1330601 1340068 1351702 1364131 1376230 1387096 1396101 1402788 
3337.029 1406864 1408363 1407483 1404783 1400908 1396329 1391302 1385782 
3340.886 1379412 1371933 1363401 1354522 1346445 1340658 1338358 1339993 
3344.744 1345108 1352193 1359313 1364702 1367215 1366998 1365090 1363204 
3348.601 1363008 1365535 1370750 1377715 1384951 1391012 1394901 1396324 
3352.459 1395605 1393428 1390476 1387344 1384492 1382166 1380951 1381497 
3356.316 1384345 1389641 1396770 1404283 1410158 1412248 1409214 1400841 
3360.174 1388622 1375164 1363716 1357020 1356574 1362110 1371641 1381996 
3364.031 1390002 1393150 1390536 1382945 1372640 1362603 1355637 1353602 
3367.888 1356994 1364826 1375172 1385883 1395188 1402242 1407325 1411271 
3371.746 1415172 1419526 1423915 1426985 1426749 1421490 1410358 1393794 
3375.603 1373829 1353410 1335855 1323999 1319558 1322796 1332563 1346672 
3379.461 1362301 1376522 1386905 1391773 1390513 1383744 1373217 1361320 
3383.318 1350664 1343242 1339948 1340286 1342832 1345581 1347086 1346780 
3387.176 1345375 1344467 1345644 1349915 1356940 1365204 1372426 1376477 
3391.033 1376038 1371118 1362897 1353266 1344179 1337086 1332726 1331167 
3394.890 1332003 1334383 1337400 1339645 1339608 1335755 1326925 1312970 
3398.748 1295104 1275838 1258512 1246545 1242405 1247103 1259885 1278766 
3402.605 1300987 1323865 1345206 1363483 1377838 1387838 1393445 1395351 
3406.463 1394625 1392920 1392103 1393690 1398219 1405121 1412789 1419126 
3410.320 1422418 1421980 1418438 1413309 1408498 1405410 1404592 1405659 
3414.177 1407798 1410247 1412868 1415958 1420100 1425501 1431634 1437244 
3418.035 1440740 1440669 1436343 1428046 1416865 1404079 1390777 1377666 
3421.892 1364953 1352856 1341911 1333139 1327753 1326841 1330772 1338975 
3425.750 1349895 1361460 1371666 1379068 1383033 1383731 1381874 1378479 
3429.607 1374510 1370883 1368323 1367345 1368203 1370679 1374188 1377733 
3433.465 1380327 1381336 1380749 1379208 1377874 1377838 1379846 1383729 
3437.322 1388659 1393395 1396753 1398041 1397236 1394844 1391542 1387837 
3441.179 1383842 1379444 1374366 1368653 1362743 1357604 1354431 1354287 
3445.037 1357886 1365207 1375664 1388130 1401166 1413226 1423053 1429619 
3448.894 1432495 1431842 1428338 1422975 1416999 1411310 1406612 1403079 
3452.752 1400608 1399037 1398366 1398931 1401333 1406185 1414044 1424899 
3456.609 1438417 1453629 1469517 1484914 1498823 1510585 1519861 1526662 
3460.467 1531519 1535138 1538423 1542055 1546315 1550703 1554154 1555367 
3464.324 1553450 1548435 1541610 1535305 1532166 1534201 1541783 1553745 
3468.181 1567197 1579004 1586808 1589898 1589643 1588841 1590770 1597919 
3472.039 1611337 1630319 1653078 1677370 1701289 1723647 1743661 1760620 
3475.896 1773739 1781758 1783859 1780014 1771587 1761304 1752837 1749699 
3479.754 1754152 1766655 1785803 1808915 1832995 1855858 1876407 1894860 
3483.611 1912174 1929403 1947210 1965504 1983642 2000663 2015455 2027184 
3487.469 2035310 2039644 2040594 2039248 2037514 2037878 2042929 2054653 
3491.326 2073699 2098968 2127734 2156419 2181594 2200873 2213687 2220983 
3495.183 2224521 2226156 2226792 2226499 2224714 2221128 2216507 2212778 
3499.041 2212695 2218718 2232167 2252284 2276258 2300184 2320009 2333136 
3502.898 2338831 2338528 2334996 2331332 2330049 2332587 2339241 2349484 
3506.756 2362433 2377003 2392133 2406419 2418182 2425637 2427211 2422097 
3510.613 2410660 2394471 2375808 2356906 2339149 2322486 2305798 2287086 
3514.470 2264814 2238462 2209247 2179818 2153576 2133676 2122034 2118720 
3518.328 2121882 2128368 2134524 2137205 2134494 2126128 2113407 2098708 
3522.185 2084669 2073514 2066273 2062532 2060672 2058280 2053069 2043547 
3526.043 2029633 2012637 1994869 1978874 1966629 1958763 1954507 1951943 
3529.900 1948728 1942774 1932922 1919147 1902430 1884325 1866205 1849042 
3533.758 1833274 1818653 1804705 1791180 1778092 1765878 1755262 1747050 
3537.615 1741894 1739997 1740922 1743768 1747280 1749997 1750864 1749299 
3541.472 1745538 1740541 1735686 1732194 1731053 1732203 1734861 1737687 
3545.330 1739218 1738480 1735378 1730765 1726115 1723093 1722876 1725737 
3549.187 1730943 1736684 1740881 1741522 1737321 1728048 1714704 1699085 
3553.045 1683498 1670170 1660660 1655696 1655194 1658348 1664086 1671351 
3556.902 1679560 1688402 1697855 1707681 1717486 1726233 1732740 1735671 
3560.760 1734200 1727991 1717546 1704079 1689093 1674142 1660774 1649995 
3564.617 1642471 1638276 1636994 1637681 1638810 1638673 1635681 1628926 
3568.474 1618596 1606078 1593845 1584799 1581607 1585872 1597850 1616193 
3572.332 1638478 1661766 1683148 1700325 1711833 1717057 1716307 1710561 
3576.189 1701484 1691123 1681598 1674803 1671662 1671983 1674342 1676413 
3580.047 1675608 1670030 1659018 1643471 1625727 1608832 1595495 1587661 
3583.904 1585656 1588485 1593978 1599449 1602533 1601440 1595616 1585564 
3587.761 1572881 1559727 1548492 1541073 1538650 1541055 1547125 1554783 
3591.619 1561735 1565815 1565857 1561498 1553254 1542290 1529953 1517397 
3595.476 1505596 1495320 1487136 1481561 1478968 1479262 1481832 1485521 
3599.334 1488730 1489844 1487659 1481680 1472159 1460069 1446616 1432956 
3603.191 1419968 1408159 1397841 1389280 1382898 1379046 1378157 1380367 
3607.049 1385482 1393000 1402304 1412866 1424457 1437488 1452732 1471049 
3610.906 1493214 1519097 1547794 1576976 1603510 1623863 1634823 1634448 
3614.763 1622783 1602051 1576235 1550283 1528950 1515432 1510781 1513645 
3618.621 1520941 1528807 1533952 1534580 1530702 1523844 1516390 1510473 
3622.478 1507584 1507869 1510688 1514805 1518923 1522047 1523681 1523956 
3626.336 1523261 1522384 1522380 1524572 1530395 1541209 1557831 1580253 
3630.193 1607460 1637534 1667707 1695413 1718483 1735905 1748111 1756682 
3634.051 1764269 1773514 1786660 1804599 1826736 1850832 1873647 1891652 
3637.908 1902052 1903536 1896833 1884650 1870927 1860093 1855812 1860183 
3641.765 1873334 1893585 1917888 1942836 1965154 1982358 1992953 1996433 
3645.623 1993138 1984251 1971656 1957823 1945590 1937491 1935593 1940634 
3649.480 1951883 1967237 1983955 1999308 2011456 2020067 2026020 2031093 
3653.338 2037173 2045301 2055531 2066584 2076575 2083782 2087015 2086357 
3657.195 2082875 2078239 2074129 2071553 2070635 2070785 2070787 2069475 
3661.052 2066073 2060410 2052901 2044235 2035285 2026628 2018411 2010537 
3664.910 2002612 1994095 1984691 1974104 1962556 1950378 1938272 1926988 
3668.767 1917227 1909469 1903887 1900273 1898209 1897116 1896492 1896150 
3672.625 1896104 1896402 1897131 1898082 1898664 1898038 1895182 1889391 
3676.482 1880149 1867453 1851599 1832969 1811896 1788553 1763000 1735374 
3680.340 1706118 1676109 1646529 1618930 1594841 1575493 1561836 1554141 
3684.197 1552162 1555041 1561446 1569566 1577381 1582855 1584357 1581073 
3688.054 1573159 1561777 1548727 1536204 1525716 1518275 1513795 1511671 
3691.912 1510979 1511053 1511510 1512362 1513721 1515463 1516983 1517354 
3695.769 1515834 1511903 1506054 1499499 1493932 1490924 1491391 1495111 
3699.627 1500762 1506352 1509853 1509753 1505604 1497964 1488142 1477910 
3703.484 1468889 1462319 1458967 1459306 1463485 1471556 1483310 1498055 
3707.342 1514703 1531269 1545399 1554569 1556844 1551300 1538532 1520723 
3711.199 1501261 1483819 1471513 1465981 1466966 1472508 1479517 1484864 
3715.056 1486236 1482889 1475539 1466125 1456771 1449218 1444310 1441986 
3718.914 1441688 1442907 1445532 1449997 1456840 1466248 1477525 1489055 
3722.771 1498734 1504693 1506332 1504410 1501267 1499954 1503138 1512018 
3726.629 1525698 1541104 1554034 1560072 1556444 1542326 1519648 1492316 
3730.486 1465243 1443218 1429685 1426264 1432387 1445849 1463558 1482036 
3734.344 1498248 1509781 1514961 1513107 1504444 1490156 1472442 1454401 
3738.201 1439443 1430856 1430778 1439700 1456177 1476873 1497453 1513611 
3742.058 1522366 1522525 1515048 1502649 1488772 1476544 1468070 1463851 
3745.916 1463113 1464554 1466796 1469065 1471422 1474305 1478493 1484562 
3749.773 1492652 1502537 1513542 1524989 1536076 1546050 1554181 1559829 
3753.631 1562503 1561926 1558208 1551939 1543999 1535391 1527196 1520243 
3757.488 1515009 1511622 1510044 1509924 1510783 1512121 1513221 1513352 
3761.345 1511798 1508104 1502347 1495142 1487545 1481053 1477065 1476486 
3765.203 1479558 1485463 1492680 1499193 1503101 1503130 1498925 1491518 
3769.060 1482737 1474949 1470349 1470310 1475062 1483559 1493939 1504158 
3772.918 1512550 1518573 1522528 1525752 1529797 1535939 1544848 1556350 
3776.775 1569535 1583129 1595893 1606740 1614796 1619365 1619913 1616047 
3780.633 1607765 1595674 1581089 1565995 1552797 1543531 1539299 1540153 
3784.490 1544653 1550483 1555251 1557196 1555951 1552704 1549836 1550185 
3788.347 1555958 1567789 1584429 1602786 1618664 1628129 1628387 1618698 
3792.205 1600570 1577099 1552254 1529602 1511692 1499730 1493767 1493258 
3796.062 1497535 1506103 1518393 1533431 1549617 1564525 1575435 1580058 
3799.920 1577335 1567823 1553721 1538205 1524351 1514335 1508933 1507789 
3803.777 1510002 1514671 1521491 1530336 1540915 1552108 1561764 1566992 
3807.635 1565305 1555442 1538495 1517597 1497422 1482581 1476476 1480205 
3811.492 1492331 1509751 1528579 1545616 1558718 1567385 1572087 1573753 
3815.349 1573415 1571674 1568873 1565382 1561609 1558129 1555338 1553261 
3819.207 1551567 1549170 1545073 1538305 1528622 1516522 1503423 1491063 
3823.064 1481321 1475628 1474869 1478941 1487106 1497972 1509865 1521250 
3826.922 1530949 1538360 1543431 1546583 1548352 1549303 1549716 1549860 
3830.779 1550016 1550532 1551919 1554536 1558423 1562901 1566674 1568270 
3834.636 1566504 1561096 1553058 1544568 1538245 1536398 1539953 1548168 
3838.494 1558722 1568457 1574445 1574926 1569677 1559906 1547911 1536119 
3842.351 1526612 1520636 1518424 1519463 1522674 1526606 1529716 1530743 
3846.209 1528968 1524491 1518456 1512588 1509097 1509647 1514842 1523977 
3850.066 1535239 1546105 1554437 1559140 1560378 1559363 1557638 1556286 
3853.924 1555373 1553698 1549690 1541865 1529836 1514671 1498666 1484876 
3857.781 1475958 1473744 1478584 1489205 1503210 1517658 1529697 1537285 
3861.638 1539504 1536545 1529544 1520371 1510796 1502290 1495657 1491012 
3865.496 1488174 1486718 1486839 1488899 1493738 1501825 1513017 1526283 
3869.353 1539578 1550562 1557278 1558818 1555789 1549885 1543500 1538875 
3873.211 1537241 1538883 1543012 1548542 1554397 1560099 1565478 1570586 
3877.068 1575358 1579289 1581638 1581809 1579735 1576091 1572277 1569774 
3880.926 1569605 1571747 1575058 1577656 1577618 1573632 1565671 1554786 
3884.783 1542938 1532009 1523314 1517227 1513193 1510301 1507772 1505515 
3888.640 1503843 1503367 1504333 1506236 1507645 1506753 1501983 1492620 
3892.498 1479522 1464638 1450898 1440798 1436214 1437524 1443832 1453645 
3896.355 1465270 1477407 1489405 1501002 1511743 1520910 1527277 1529434 
3900.213 1526481 1518454 1506592 1493293 1481387 1473353 1470874 1474213 
3904.070 1482472 1493956 1506437 1517850 1526591 1531611 1532636 1530082 
3907.927 1525254 1520020 1516575 1516644 1521066 1529254 1538974 1547324 
3911.785 1551216 1548529 1538961 1523962 1506553 1490097 1477394 1470026 
3915.642 1468087 1470388 1475268 1481144 1486695 1491304 1494709 1496688 
3919.500 1497396 1496990 1496008 1495157 1495459 1497465 1501241 1506159 
3923.357 1510882 1513966 1514074 1510586 1503739 1494293 1483624 1473085 
3927.215 1464276 1458667 1457717 1462570 1473858 1490967 1512273 1534874 
3931.072 1555394 1570834 1579297 1580647 1576251 1568408 1559538 1551349 
3934.929 1544540 1538836 1533656 1528580 1523608 1519438 1516966 1517059 
3938.787 1520247 1526859 1536950 1550456 1566865 1585085 1603140 1618274 
3942.644 1627597 1628851 1621532 1607101 1588975 1571374 1557951 1550661 
3946.502 1549215 1551383 1554067 1554812 1552506 1547692 1542164 1537876 
3950.359 1536149 1537406 1541385 1547505 1555649 1566094 1579040 1594252 
3954.217 1610222 1624346 1633606 1635551 1629360 1616166 1599066 1582084 
3958.074 1568989 1562351 1563018 1570105 1581684 1595159 1607805 1617221 
3961.931 1621367 1618940 1609714 1594840 1576995 1559942 1547831 1543738 
3965.789 1549043 1562544 1580812 1599258 1613318 1619831 1617639 1607760 
3969.646 1592836 1576117 1560763 1549177 1542846 1542303 1547111 1556078 
3973.504 1567400 1578684 1587554 1591894 1590598 1583612 1572144 1558281 
3977.361 1544482 1532914 1525294 1522593 1524866 1531702 1541866 1553790 
3981.219 1565318 1574267 1578772 1577791 1571603 1561711 1550632 1541083 
3985.076 1535142 1533796 1536646 1542509 1549812 1557505 1565239 1573416 
3988.933 1582622 1593244 1604977 1616941 1628014 1637194 1644148 1649140 
3992.791 1652772 1655469 1657499 1658474 1657953 1655681 1652005 1647860 
3996.648 1644637 1643511 1644913 1648294 1652131 1654430 1653385 1648193 
4000.506 1639159 
##END=
