##TITLE=Tecor_PLA+_White_Filament_r4_ATR-Corrected
##JCAMP-DX=5.01  $$ Nicolet v. 1
##DATATYPE=INFRARED SPECTRUM
##ORIGIN=Curtin University
##OWNER=Nicolet
##LONGDATE=2024/07/19
##TIME=08:51:01
##SPECTROMETER/DATA SYSTEM=Nicolet iS50
##DATA PROCESSING=
Ratio against background
%Transmittance->Absorbance
ATR Correction
Truncated
ElementMultiply or ElementDivide
##COMMENTS=
Number of sample scans: 32
Collection length: 47.26 sec
Sample gain: 1.0
Background collected on: Fri Jul 19 08:49:41 2024 (GMT+08:00);
Number of background scans: 32
Background gain: 1.0
Sample spacing:  1.000
Number of scan points: 16672
Resolution points: 8192
Number of FFT points: 65536
Apodization: N-B strong;
Phase correction: Mertz;
Laser frequency: 15798.3 cm-1
Number of rejected sample scans: 0
Number of rejected background scans: 0
Bench serial number: AUP1200105;
##RESOLUTION=4.000
##XUNITS=1/CM
##YUNITS=ABSORBANCE
##FIRSTX=400.163452
##LASTX=4000.187744
##FIRSTY=0.061125
##MAXX=4000.187744
##MINX=400.163452
##MAXY=1.211801
##MINY=-0.039401
##XFACTOR=1.000000
##YFACTOR=1.000000E-008
##NPOINTS=7468
##DELTAX=0.482125
##ZPD=8192
##XYDATA=(X++(Y..Y))
400.163 6112543 5991962 5860342 5735413 5628298 5542306 5472840 5410490 
404.020 5345413 5270987 5185168 5090129 4990232 4890192 4793390 4701360 
407.877 4613776 4529029 4444971 4359919 4273375 4186773 4103601 4028650 
411.734 3966600 3920243 3888889 3867912 3849519 3824845 3786472 3730607 
415.591 3658055 3573760 3485131 3400123 3325504 3265837 3223113 3196717 
419.448 3183330 3177130 3170107 3153351 3118889 3062093 2983608 2890015 
423.305 2792526 2704176 2635868 2593403 2575942 2577071 2587566 2598844 
427.162 2605721 2607515 2607081 2608645 2615270 2627204 2641796 2654751 
431.019 2662082 2661854 2654806 2643842 2633280 2626715 2626090 2631128 
434.876 2639634 2648269 2653603 2653070 2645654 2632096 2614724 2596775 
438.733 2581478 2571160 2566410 2566137 2567955 2569303 2568616 2566043 
442.590 2563430 2563489 2568438 2578822 2592915 2607160 2617399 2620361 
446.447 2614777 2601759 2584059 2564951 2546878 2530792 2516166 2501747 
450.304 2486457 2470179 2453783 2438745 2426278 2416677 2409069 2401638 
454.161 2392302 2379552 2362898 2343193 2322356 2302926 2287379 2277513 
458.017 2273895 2275577 2280122 2284125 2283986 2277047 2262522 2242017 
461.874 2219301 2199289 2186455 2182974 2188752 2200374 2212537 2219861 
465.731 2218736 2208611 2192106 2174152 2160144 2154095 2157205 2167432 
469.588 2180176 2189699 2190773 2180104 2157025 2123536 2083673 2042520 
473.445 2005101 1975418 1955815 1946654 1946408 1952075 1959768 1965494 
477.302 1965915 1958910 1943811 1921405 1893554 1862777 1831773 1803124 
481.159 1779028 1761226 1750859 1748389 1753347 1764270 1778708 1793490 
485.016 1805223 1810996 1808986 1798922 1782180 1761416 1740020 1721281 
488.873 1707734 1700757 1700364 1705512 1714377 1724836 1734885 1742918 
492.730 1747978 1749859 1749067 1746538 1743958 1742706 1743588 1746482 
496.587 1750160 1752576 1751394 1744809 1732234 1714709 1694807 1676013 
500.444 1661813 1654844 1656206 1665378 1680503 1698961 1718094 1735590 
504.301 1749756 1759501 1764269 1764046 1759412 1751616 1742545 1734438 
508.158 1729384 1728828 1733101 1741371 1751900 1762533 1771290 1776761 
512.015 1778193 1775383 1768440 1757656 1743546 1726989 1709378 1692545 
515.871 1678412 1668485 1663316 1662326 1663934 1666102 1667043 1665729 
519.728 1662124 1656937 1651120 1645364 1639861 1634371 1628645 1622766 
523.585 1617374 1613497 1612060 1613118 1616055 1619012 1619575 1615468 
527.442 1605308 1589067 1568112 1544849 1522056 1502227 1487035 1477105 
531.299 1471990 1470449 1470756 1471154 1470128 1466713 1460643 1452296 
535.156 1442558 1432558 1423401 1415962 1410768 1408079 1407922 1410188 
539.013 1414586 1420626 1427497 1434147 1439442 1442448 1442743 1440574 
542.870 1436792 1432558 1428952 1426635 1425707 1425823 1426502 1427422 
546.727 1428560 1430182 1432535 1435661 1439255 1442721 1445580 1447644 
550.584 1449292 1451369 1454841 1460511 1468619 1478849 1490444 1502488 
554.441 1514150 1524758 1533651 1539996 1543025 1541882 1536123 1526062 
558.298 1513030 1499217 1487154 1479069 1476167 1478359 1484431 1492556 
562.155 1501037 1508948 1516259 1523746 1532372 1542746 1554769 1567468 
566.012 1579369 1588904 1594922 1596950 1595262 1590738 1584621 1578240 
569.869 1572809 1569346 1568542 1570742 1575944 1583742 1593454 1604193 
573.725 1615090 1625444 1634844 1643222 1650756 1657727 1664386 1670813 
577.582 1676841 1682169 1686470 1689638 1691936 1694125 1697420 1703249 
581.439 1712921 1727195 1745954 1768107 1791792 1814765 1835020 1851281 
585.296 1863311 1871839 1878195 1883828 1889831 1896631 1904104 1911768 
589.153 1919140 1926025 1932531 1939000 1945700 1952650 1959513 1965688 
593.010 1970566 1973737 1975188 1975304 1974806 1974543 1975345 1977865 
596.867 1982529 1989485 1998588 2009447 2021475 2033989 2046384 2058263 
600.724 2069483 2080132 2090276 2099811 2108259 2114878 2118880 2119863 
604.581 2118189 2115160 2112864 2113750 2119951 2132676 2151962 2176644 
608.438 2204742 2234065 2262605 2288899 2312060 2331596 2347300 2359175 
612.295 2367571 2373390 2378174 2384084 2393465 2408377 2429982 2458243 
616.152 2491967 2529193 2567783 2606051 2643066 2678695 2713255 2747080 
620.009 2780150 2811933 2841542 2868053 2890949 2910344 2927074 2942470 
623.866 2958041 2975108 2994471 3016351 3040376 3065707 3091259 3115860 
627.723 3138452 3158249 3174866 3188426 3199550 3209265 3218833 3229466 
631.579 3242052 3257015 3274234 3293131 3312868 3332600 3351698 3369867 
635.436 3387261 3404395 3422034 3440997 3461985 3485355 3511029 3538465 
639.293 3566710 3594644 3621184 3645547 3667353 3686648 3703763 3719141 
643.150 3733150 3746020 3757874 3768878 3779368 3789958 3801440 3814621 
647.007 3830082 3847992 3867974 3889222 3910656 3931198 3949979 3966558 
650.864 3980946 3993611 4005420 4017480 4030938 4046784 4065604 4087417 
654.721 4111619 4137083 4162443 4186508 4208544 4228491 4246935 4264801 
658.578 4283004 4302149 4322325 4343245 4364422 4385490 4406352 4427194 
662.435 4448281 4469768 4491484 4512966 4533631 4553042 4571104 4588178 
666.292 4604927 4622112 4640300 4659779 4680506 4702270 4724839 4748064 
670.149 4771767 4795718 4819396 4842043 4862768 4880850 4896011 4908579 
674.006 4919435 4929741 4940524 4952404 4965383 4979024 4992779 5006363 
677.863 5020019 5034540 5050956 5070122 5092094 5115971 5139912 5161566 
681.720 5178778 5190266 5196157 5198059 5198721 5201275 5208346 5221332 
685.577 5240031 5262835 5287285 5311048 5332644 5351958 5370180 5389248 
689.433 5411053 5436622 5465665 5496615 5527077 5554650 5577646 5595585 
693.290 5609200 5620182 5630522 5641997 5655787 5672373 5691629 5713106 
697.147 5736267 5760599 5785628 5810829 5835546 5858973 5880207 5898379 
701.004 5912847 5923356 5930069 5933606 5934893 5934932 5934550 5934161 
704.861 5933579 5932072 5928525 5921846 5911305 5896875 5879240 5859646 
708.718 5839377 5819348 5799593 5779304 5756878 5730505 5698679 5660607 
712.575 5616336 5566620 5512435 5454604 5393415 5328521 5259127 5184347 
716.432 5103533 5016612 4924115 4827105 4726868 4624630 4521356 4417676 
720.289 4313952 4210529 4107947 4007108 3909271 3815939 3728510 3648044 
724.146 3575013 3509348 3450584 3398292 3352413 3313538 3282936 3262365 
728.003 3253688 3258486 3277714 3311674 3360090 3422385 3497970 3586432 
731.860 3687562 3801236 3927165 4064635 4212339 4368206 4529547 4693150 
735.717 4855673 5014026 5165788 5309565 5445154 5573464 5696149 5815045 
739.574 5931587 6046425 6159265 6269102 6374750 6475347 6570682 6661386 
743.431 6748599 6833760 6918122 7002658 7088052 7174846 7263569 7354785 
747.287 7448958 7546203 7646170 7748067 7850831 7953493 8055400 8156266 
751.144 8255911 8353922 8449192 8539785 8623039 8696031 8756007 8800885 
755.001 8829337 8840755 8834951 8811948 8771856 8714964 8641861 8553471 
758.858 8450985 8335624 8208398 8070060 7921244 7762854 7596399 7424229 
762.715 7249349 7074952 6903748 6737432 6576451 6420191 6267541 6117589 
766.572 5970134 5825919 5686363 5553103 5427415 5309803 5199856 5096409 
770.429 4997875 4902675 4809459 4717271 4625579 4534072 4442616 4351178 
774.286 4259877 4169055 4079337 3991628 3907028 3826586 3751053 3680572 
778.143 3614546 3551577 3489762 3427069 3361873 3293360 3221809 3148406 
782.000 3074871 3002935 2933761 2867691 2804241 2742397 2681039 2619286 
785.857 2556656 2493023 2428370 2362686 2295900 2228090 2159730 2091856 
789.714 2026061 1964183 1907749 1857572 1813398 1774079 1738038 1703890 
793.571 1670999 1639730 1611228 1586918 1567870 1554226 1545083 1538632 
797.428 1532691 1525331 1515354 1502589 1487845 1472616 1458631 1447433 
801.285 1439958 1436372 1435964 1437246 1438425 1437626 1433399 1425104 
805.141 1413078 1398607 1383616 1370256 1360400 1355236 1355141 1359669 
808.998 1367781 1378157 1389390 1400239 1409673 1416901 1421423 1423063 
812.855 1422034 1418975 1414868 1410879 1408104 1407338 1408839 1412348 
816.712 1417140 1422333 1427101 1430914 1433565 1435155 1435898 1435984 
820.569 1435478 1434399 1432790 1430934 1429374 1428877 1430243 1434013 
824.426 1440189 1448257 1457169 1465767 1473115 1478779 1483032 1486635 
828.283 1490536 1495514 1501857 1509318 1517295 1525214 1532865 1540658 
832.140 1549601 1561074 1576380 1596428 1621502 1651190 1684608 1720718 
835.997 1758646 1797962 1838804 1881872 1928294 1979465 2036798 2101460 
839.854 2174154 2254906 2342943 2436789 2534365 2633337 2731460 2826826 
843.711 2918032 3004171 3084618 3158851 3226221 3285858 3336798 3378188 
847.568 3409670 3431726 3445897 3454929 3462566 3473207 3491391 3521232 
851.425 3566001 3627905 3708141 3807212 3925294 4062590 4219510 4396536 
855.282 4593945 4811404 5047678 5300527 5566876 5843081 6125312 6409744 
859.139 6692629 6970229 7238728 7494390 7733860 7954677 8155724 8337421 
862.995 8501478 8650301 8786107 8910271 9022855 9122830 9208557 9278510 
866.852 9331787 9368362 9388857 9394036 9384302 9359279 9317803 9258141 
870.709 9178495 9077606 8955099 8811793 8649544 8471031 8279248 8076939 
874.566 7866187 7648189 7423339 7191659 6953398 6709601 6462451 6215157 
878.423 5971481 5735027 5508476 5293229 5089451 4896589 4714116 4542227 
882.280 4382126 4235906 4105954 3994247 3901666 3827787 3771012 3729074 
886.137 3699626 3680801 3671344 3670564 3677974 3692950 3714544 3741374 
889.994 3771860 3804385 3837526 3870121 3901241 3930106 3955980 3978144 
893.851 3995931 4008808 4016407 4018630 4015611 4007731 3995664 3980384 
897.708 3963197 3945724 3929759 3917046 3908991 3906425 3909431 3917398 
901.565 3929202 3943575 3959405 3976061 3993401 4011642 4031178 4052274 
905.422 4074909 4098825 4123614 4148971 4174848 4201407 4228852 4257071 
909.279 4285349 4312211 4335553 4353100 4362932 4363994 4356352 4341190 
913.136 4320342 4295833 4269331 4241855 4213799 4185158 4155883 4126165 
916.993 4096469 4067489 4039833 4013851 3989467 3966261 3943653 3921120 
920.849 3898316 3875165 3851694 3827958 3803922 3779449 3754404 3728795 
924.706 3702887 3677295 3652915 3630763 3611861 3596925 3586219 3579461 
928.563 3575823 3574057 3572736 3570545 3566610 3560638 3553046 3544759 
932.420 3536946 3530683 3526657 3525113 3525873 3528473 3532456 3537467 
936.277 3543290 3549809 3556921 3564601 3572918 3582218 3593175 3606776 
940.134 3624076 3645924 3672621 3703833 3738703 3776172 3815388 3856023 
943.991 3898412 3943361 3991772 4044314 4101161 4161932 4225984 4292598 
947.848 4361318 4432029 4504920 4580345 4658684 4740210 4825080 4913334 
951.705 5004825 5099134 5195360 5292043 5387058 5477865 5561704 5636012 
955.562 5698641 5748047 5783193 5803584 5809029 5799724 5776337 5740227 
959.419 5693424 5638667 5579097 5517936 5458019 5401567 5349951 5303795 
963.276 5263137 5227608 5196621 5169498 5145374 5123232 5101784 5079470 
967.133 5054544 5025189 4989744 4946958 4896212 4837705 4772487 4702382 
970.990 4629661 4556805 4486002 4419004 4356840 4299954 4248239 4201360 
974.847 4158921 4120649 4086448 4056454 4030965 4010335 3994898 3984866 
978.703 3980162 3980423 3984975 3993003 4003765 4016810 4032224 4050575 
982.560 4072788 4099828 4132270 4170116 4212674 4258802 4307220 4356879 
986.417 4407289 4458538 4511203 4566129 4624015 4685346 4750284 4818617 
990.274 4889843 4963204 5037751 5112445 5186344 5258763 5329577 5399255 
994.131 5468828 5539641 5612923 5689461 5769356 5852049 5936642 6022202 
997.988 6108209 6194712 6282311 6371990 6464866 6562041 6664492 6773159 
1001.845 6888933 7012702 7145185 7286840 7437671 7597300 7765106 7940522 
1005.702 8123372 8314020 8513377 8722701 8943320 9176354 9422603 9682596 
1009.559 9956701 10245457 10549467 10869595 11206663 11561332 11933930 
1012.934 12324401 12732375 13157323 13598739 14056340 14530054 15020035 
1016.309 15526430 16049144 16587563 17140294 17705036 18278764 18857854 
1019.683 19438660 20017882 20592948 21162068 21724104 22278320 22824078 
1023.058 23360818 23888228 24406530 24916912 25421626 25923956 26427784 
1026.433 26937110 27455550 27986302 28532142 29095752 29680202 30288976 
1029.809 30925960 31595088 32299778 33042476 33824248 34644572 35501296 
1033.184 36390636 37307264 38244520 39194524 40148580 41097600 42032540 
1036.559 42944724 43826040 44668904 45466272 46211488 46898444 47521652 
1039.934 48076452 48559112 48966964 49298240 49552224 49729212 49830768 
1043.310 49859780 49820440 49717964 49558144 49346772 49089440 48791368 
1046.685 48457764 48094200 47706948 47302920 46889372 46473128 46060080 
1050.060 45654564 45259432 44876452 44506884 44151996 43813424 43493064 
1053.435 43192776 42913888 42657100 42422540 42210276 42021092 41857180 
1056.811 41722496 41622876 41565524 41558544 41610176 41728448 41920964 
1060.186 42194976 42557416 43015088 43574288 44240468 45017548 45907436 
1063.561 46909468 48020472 49234816 50545068 51942604 53418384 54963600 
1066.936 56570216 58230992 59939744 61690884 63479208 65299488 67146208 
1070.312 69013272 70894000 72781032 74666736 76543448 78404160 80242752 
1073.687 82054224 83834072 85577456 87277848 88926000 90509744 92014864 
1077.062 93426760 94732440 95922136 96989312 97929296 98737304 99405872 
1080.437 99924856 100281480 100463544 100461864 100272656 99897816 99344536 
1083.813 98623368 97746960 96729376 95586272 94334928 92994312 91584080 
1087.188 90123272 88628736 87114512 85591384 84067752 82550224 81044528 
1090.563 79555592 78087568 76643328 75224384 73830832 72461824 71116160 
1093.938 69792912 68491560 67212328 65955644 64721984 63511408 62323380 
1097.313 61156680 60009504 58879728 57765316 56664556 55576508 54501112 
1100.689 53439124 52391852 51360912 50347852 49354104 48380940 47429904 
1104.064 46502936 45602568 44731924 43894376 43093104 42330788 41609388 
1107.439 40930316 40294544 39703088 39157156 38658296 38208212 37808524 
1110.814 37460436 37164448 36920284 36726748 36581744 36482472 36425516 
1114.190 36407196 36423844 36472160 36549492 36654060 36784968 36942148 
1117.565 37126136 37337880 37578568 37849576 38152180 38487352 38855296 
1120.940 39254944 39683236 40134844 40602028 41074976 41542448 41992540 
1124.315 42413492 42794272 43124872 43396596 43602192 43736164 43795060 
1127.691 43777720 43685164 43520192 43286636 42988620 42629904 42213760 
1131.066 41743124 41221016 40650748 40035824 39379612 38684636 37952240 
1134.441 37182520 36374908 35528964 34645372 33726428 32776136 31799830 
1137.816 30803352 29792484 28772476 27748072 26723730 25704020 24693852 
1141.192 23698520 22723504 21774164 20855602 19972376 19128438 18327116 
1144.567 17571118 16862396 16202058 15590297 15026388 14508858 14035776 
1147.942 13605042 13214628 12862749 12547860 12268556 12023455 11811085 
1151.317 11629897 11478183 11354196 11256123 11182079 11130208 11098697 
1154.693 11085983 11090950 11113080 11152574 11210333 11287655 11386024 
1158.068 11506779 11650929 11819120 12011822 12229589 12473387 12744841 
1161.443 13046399 13381317 13753612 14167891 14629275 15143253 15715688 
1164.818 16352747 17060992 17847356 18719126 19684040 20750266 21926322 
1168.194 23221158 24643878 26203626 27909198 29768496 31787902 33971496 
1171.569 36320144 38830728 41495280 44300420 47226804 50248836 53334188 
1174.944 56443768 59531564 62545116 65426584 68114968 70549216 72672504 
1178.319 74436376 75804944 76757408 77289376 77412480 77152544 76546720 
1181.695 75640144 74482272 73123440 71611960 69991984 68302200 66575484 
1185.070 64838852 63114012 61417828 59763144 58159440 56613708 55131024 
1188.445 53715312 52369548 51095952 49895616 48768296 47712184 46723912 
1191.820 45799008 44932540 44119800 43356984 42641400 41971396 41345908 
1195.196 40764080 40224856 39726840 39268448 38848052 38464120 38115240 
1198.571 37799932 37516372 37262188 37034500 36830156 36646084 36479600 
1201.946 36328692 36191876 36067944 35955548 35852848 35757480 35666488 
1205.321 35576500 35484044 35385816 35278800 35160400 35028472 34881284 
1208.697 34717480 34535972 34335768 34115772 33874740 33611344 33324414 
1212.072 33013340 32678342 32320762 31942832 31547440 31137588 30715948 
1215.447 30284626 29845136 29398596 28945884 28487978 28025916 27560842 
1218.822 27093882 26626172 26158822 25693048 25230238 24771918 24319670 
1222.198 23874892 23438616 23011432 22593450 22184538 21784508 21393288 
1225.573 21011094 20638330 20275498 19923108 19581530 19250922 18931284 
1228.948 18622444 18324202 18036312 17758558 17490830 17233116 16985554 
1232.323 16748358 16521764 16305889 16100609 15905409 15719457 15541743 
1235.698 15371244 15207177 15049109 14897038 14751303 14612307 14480405 
1239.074 14355607 14237551 14125621 14019001 13916974 13819051 13725118 
1242.449 13635422 13550544 13471140 13397864 13331063 13270700 13216381 
1245.824 13167350 13122816 13082090 13044845 13011144 12981425 12956300 
1249.199 12936267 12921591 12912215 12907839 12908188 12913230 12923299 
1252.575 12939036 12961213 12990402 13026746 13069852 13118888 13172825 
1255.950 13230844 13292432 13357566 13426530 13499691 13577209 13658847 
1259.325 13743944 13831416 13919970 14008237 14094847 14178520 14258046 
1262.700 14332330 14400381 14461318 14514436 14559112 14594811 14620915 
1266.076 14636827 14641923 14635676 14617737 14588058 14546837 14494458 
1269.451 14431264 14357413 14272717 14176583 14068176 13946532 13810837 
1272.826 13660619 13495922 13317327 13125899 12923011 12710126 12488600 
1276.201 12259520 12023637 11781476 11533432 11280064 11022189 10761043 
1279.577 10498188 10235402 9974462 9716924 9464096 9216906 8976146 8742558 
1283.434 8517078 8300896 8095529 7902647 7723979 7561098 7415295 7287438 
1287.292 7178016 7087116 7014508 6959764 6922325 6901563 6896886 6907733 
1291.149 6933479 6973376 7026372 7090918 7164972 7245975 7331066 7417391 
1295.006 7502427 7584269 7661755 7734406 7802194 7865304 7923802 7977549 
1298.864 8026145 8069064 8105847 8136265 8160467 8178971 8192556 8202123 
1302.721 8208569 8212610 8214800 8215476 8214824 8212881 8209640 8204958 
1306.579 8198658 8190536 8180331 8167913 8153315 8136777 8118797 8100022 
1310.436 8081130 8062690 8044994 8027971 8011266 7994330 7976714 7958218 
1314.293 7939104 7920093 7902306 7886965 7875199 7867655 7864446 7865110 
1318.151 7868671 7873974 7879928 7885693 7890827 7895286 7899298 7903256 
1322.008 7907618 7912776 7919182 7927307 7937728 7951103 7968053 7989084 
1325.866 8014418 8043997 8077498 8114515 8154861 8198604 8246314 8298821 
1329.723 8357015 8421589 8492700 8569849 8652023 8737961 8826535 8917061 
1333.581 9009474 9104241 9202147 9303899 9409904 9520093 9634048 9751206 
1337.438 9871249 9994230 10120664 10251410 10387344 10529130 10676965 
1340.813 10830604 10989488 11153083 11321094 11493711 11671609 11855724 
1344.188 12047072 12246350 12453740 12668890 12890969 13118944 13351817 
1347.564 13588838 13829462 14073297 14319879 14568436 14817788 15066311 
1350.939 15312137 15553398 15788348 16015559 16233824 16442041 16639125 
1354.314 16823818 16994834 17150930 17291122 17414786 17521732 17612190 
1357.689 17686730 17746142 17791550 17824346 17846188 17858950 17864476 
1361.065 17864412 17859976 17851884 17840416 17825588 17807268 17785182 
1364.440 17758846 17727222 17688438 17639618 17576926 17495922 17392086 
1367.815 17261534 17101622 16911440 16692211 16447353 16182555 15905669 
1371.190 15626502 15356433 15108018 14894272 14727922 14620474 14581341 
1374.566 14616954 14730005 14919026 15178314 15498155 15865462 16264677 
1377.941 16678862 17090826 17484184 17844312 18158762 18417538 18613096 
1381.316 18740218 18795894 18779272 18691438 18535184 18314514 18034170 
1384.691 17699208 17314924 16886826 16421013 15924238 15403762 14866878 
1388.067 14320183 13768889 13216543 12665062 12115277 11567651 11022975 
1391.442 10482797 9949467 9426019 8915856 8422463 7949228 7499306 7075534 
1395.299 6680289 6315315 5981461 5678657 5405829 5161091 4941992 4745881 
1399.157 4570230 4412802 4271726 4145422 4032515 3931636 3841387 3760322 
1403.014 3687055 3620287 3558987 3502381 3450001 3401586 3357049 3316353 
1406.872 3279448 3246160 3216216 3189201 3164663 3142177 3121380 3102089 
1410.729 3084310 3068142 3053766 3041350 3030998 3022764 3016657 3012765 
1414.586 3011188 3012140 3015738 3021959 3030502 3040727 3051829 3062890 
1418.444 3073258 3082620 3091178 3099594 3108807 3119840 3133522 3150372 
1422.301 3170576 3193996 3220350 3249332 3280778 3314751 3351554 3391790 
1426.159 3436192 3485624 3540870 3602550 3671017 3746379 3828523 3917263 
1430.016 4012569 4114609 4223848 4341000 4466949 4602706 4749378 4908249 
1433.874 5080917 5269447 5476463 5705063 5958708 6241097 6555865 6906482 
1437.731 7296107 7727534 8203009 8723961 9290746 9902315 10556035 11247601 
1441.588 11971218 12719809 13485387 14259283 15032533 15796222 16541885 
1444.964 17261868 17949594 18599590 19207244 19768720 20280712 20740580 
1448.339 21146602 21498264 21796310 22042390 22238662 22387164 22489458 
1451.714 22546522 22558948 22527202 22451686 22332578 22169648 21961964 
1455.089 21708072 21406444 21056302 20658156 20214220 19728092 19204156 
1458.465 18646920 18060612 17449110 16816304 16166326 15503724 14833316 
1461.840 14159864 13487825 12821232 12163890 11519564 10892157 10285529 
1465.215 9703146 9147648 8620586 8122373 7652702 7210988 6796726 6409698 
1469.073 6049766 5716700 5409876 5128178 4870157 4634230 4418882 4222771 
1472.930 4044621 3883089 3736670 3603655 3482318 3371201 3269207 3175709 
1476.787 3090314 3012632 2942068 2877689 2818326 2762908 2710628 2661251 
1480.645 2614975 2572264 2533532 2498907 2468056 2440354 2415030 2391448 
1484.502 2369177 2348144 2328390 2310003 2292980 2277167 2262377 2248480 
1488.360 2235449 2223413 2212510 2202787 2194070 2185950 2177847 2169162 
1492.217 2159434 2148464 2136384 2123578 2110607 2098049 2086417 2075992 
1496.074 2066835 2058784 2051477 2044528 2037576 2030440 2023137 2015942 
1499.932 2009208 2003384 1998710 1995270 1992863 1991080 1989393 1987264 
1503.789 1984270 1980128 1974838 1968490 1961419 1954030 1946792 1940126 
1507.647 1934366 1929643 1925812 1922561 1919394 1915876 1911648 1906630 
1511.504 1901057 1895352 1890025 1885525 1882034 1879516 1877657 1876034 
1515.362 1874198 1871812 1868671 1864700 1859909 1854407 1848291 1841710 
1519.219 1834899 1828119 1821657 1815797 1810737 1806471 1802866 1799632 
1523.076 1796448 1793028 1789190 1784936 1780392 1775753 1771235 1766912 
1526.934 1762747 1758507 1753807 1748204 1741314 1732906 1723068 1712190 
1530.791 1700990 1690336 1681103 1673952 1669167 1666614 1665721 1665702 
1534.649 1665705 1665070 1663428 1660741 1657212 1653175 1648936 1644737 
1538.506 1640718 1636926 1633487 1630496 1628072 1626254 1624879 1623524 
1542.364 1621581 1618312 1613129 1605758 1596366 1585643 1574637 1564507 
1546.221 1556243 1550424 1547125 1545928 1546105 1546818 1547405 1547461 
1550.078 1546855 1545674 1544062 1542096 1539740 1536819 1533122 1528569 
1553.936 1523219 1517392 1511550 1506217 1501813 1498577 1496516 1495370 
1557.793 1494741 1494232 1493464 1492268 1490600 1488540 1486247 1483750 
1561.651 1481062 1478049 1474520 1470360 1465599 1460497 1455587 1451538 
1565.508 1449071 1448743 1450812 1455093 1461027 1467750 1474351 1480026 
1569.365 1484301 1487075 1488617 1489340 1489680 1489914 1490115 1490178 
1573.223 1490006 1489562 1489054 1488907 1489624 1491702 1495382 1500565 
1577.080 1506809 1513462 1519789 1525184 1529239 1531825 1533069 1533184 
1580.938 1532564 1531601 1530792 1530632 1531634 1534209 1538545 1544521 
1584.795 1551672 1559231 1566311 1572153 1576272 1578688 1579738 1580051 
1588.653 1580218 1580595 1581226 1581813 1582012 1581602 1580711 1579873 
1592.510 1579876 1581499 1585198 1590989 1598341 1606455 1614478 1621889 
1596.367 1628622 1635013 1641678 1649140 1657599 1666861 1676423 1685677 
1600.225 1694187 1701844 1708876 1715688 1722664 1729872 1737085 1743834 
1604.082 1749710 1754538 1758631 1762673 1767683 1774613 1784108 1796321 
1607.940 1810905 1827096 1843898 1860362 1875668 1889269 1901000 1910961 
1611.797 1919552 1927407 1935272 1943747 1953272 1963822 1974995 1986072 
1615.655 1996203 2004722 2011311 2016134 2019741 2022815 2025973 2029531 
1619.512 2033449 2037403 2040955 2043674 2045355 2045925 2045553 2044517 
1623.369 2043253 2042298 2042306 2043971 2047876 2054345 2063237 2073838 
1627.227 2085025 2095414 2103771 2109263 2111712 2111586 2109735 2107197 
1631.084 2104842 2103164 2102282 2101983 2101952 2101915 2101737 2101504 
1634.942 2101455 2101907 2103152 2105408 2108643 2112667 2117029 2121092 
1638.799 2124178 2125631 2125069 2122396 2117840 2111852 2104954 2097519 
1642.656 2089750 2081652 2073153 2064318 2055406 2046977 2039683 2034181 
1646.514 2030814 2029629 2030280 2032250 2034997 2038127 2041512 2045163 
1650.371 2049244 2053822 2058932 2064427 2070124 2075840 2081549 2087300 
1654.229 2093297 2099761 2106929 2114825 2123398 2132372 2141381 2149920 
1658.086 2157547 2163922 2169004 2173028 2176573 2180370 2185234 2191707 
1661.944 2200024 2209964 2221025 2232531 2243993 2255157 2266287 2277881 
1665.801 2290634 2305021 2321179 2338743 2356868 2374418 2390275 2403633 
1669.658 2414232 2422470 2429305 2435944 2443588 2453031 2464590 2477947 
1673.516 2492414 2507220 2521777 2535908 2549941 2564478 2580119 2597131 
1677.373 2615268 2633861 2651963 2668815 2684156 2698370 2712491 2727841 
1681.231 2745649 2766672 2790902 2817679 2845872 2874194 2901650 2927690 
1685.088 2952339 2976063 2999649 3023879 3049551 3077275 3107533 3140681 
1688.946 3176871 3216092 3258054 3302217 3347897 3394357 3441001 3487529 
1692.803 3533999 3580853 3628840 3678767 3731460 3787512 3847260 3910796 
1696.660 3978041 4048864 4123195 4201089 4282696 4368200 4457718 4551286 
1700.518 4648958 4750801 4857041 4968120 5084532 5206877 5335548 5470662 
1704.375 5612015 5759121 5911521 6068952 6231541 6399983 6575410 6759245 
1708.233 6952961 7157817 7374589 7603572 7844395 8096344 8358348 8629282 
1712.090 8908266 9194807 9488903 9791059 10101982 10422456 10753015 11093703 
1715.948 11444180 11803648 12171195 12545937 12927136 13314386 13707468 
1719.323 14106521 14511906 14924459 15345481 15776841 16220982 16680747 
1722.698 17159222 17659638 18185238 18739416 19325728 19947950 20610180 
1726.073 21316642 22071726 22879810 23745280 24672542 25666160 26730966 
1729.448 27872022 29094770 30405148 31809804 33316320 34933244 36669724 
1732.824 38534916 40536844 42681532 44972336 47410376 49995304 52726596 
1736.199 55604440 58629312 61800744 65115000 68562728 72127608 75786320 
1739.574 79510104 83267072 87024072 90747432 94402352 97952008 101357088 
1742.949 104577384 107574440 110314800 112772312 114928784 116772392 
1745.843 118296184 119496592 120373632 120931624 121180080 121133472 
1748.736 120809648 120228040 119408048 118368376 117127120 115702192 
1751.629 114111112 112370208 110493640 108492872 106377104 104154696 
1754.522 101834920 99429240 96951768 94418368 91845544 89248992 86643048 
1757.897 84040272 81452080 78888856 76360152 73874768 71440584 69064776 
1761.272 66754140 64515536 62355928 60281860 58298528 56408756 54612268 
1764.647 52905764 51283764 49739872 48268208 46864228 45524924 44248204 
1768.023 43032176 41874224 40770756 39717276 38708784 37740176 36806552 
1771.398 35903016 35024552 34165904 33321804 32487216 31658038 30831326 
1774.773 30005356 29179276 28352588 27524606 26694262 25860118 25020838 
1778.148 24175746 23325342 22471676 21618276 20769922 19931916 19109430 
1781.524 18306694 17526484 16769865 16036482 15324986 14633940 13962543 
1784.899 13311200 12681620 12076623 11499439 10952973 10439208 9958711 
1788.274 9510814 9093658 8704892 8342081 8003086 7686405 7391018 7116182 
1792.132 6861157 6625029 6406488 6204086 6016363 5842158 5680761 5531889 
1795.989 5395540 5271489 5159009 5056615 4962061 4872589 4785606 4699158 
1799.846 4612457 4525947 4441206 4360287 4285168 4217019 4155942 4100832 
1803.704 4049872 4000970 3952362 3903030 3852855 3802397 3752705 3704721 
1807.561 3659111 3615952 3574926 3535379 3496584 3458064 3419530 3380988 
1811.419 3342627 3304596 3266896 3229306 3191390 3152646 3112681 3071510 
1815.276 3029745 2988668 2950133 2916243 2888833 2868849 2856031 2848741 
1819.134 2844286 2839540 2831685 2818794 2800091 2775844 2746966 2714441 
1822.991 2679131 2641646 2602728 2563471 2525625 2491359 2462775 2441038 
1826.848 2425848 2415059 2405152 2392001 2372153 2343690 2306778 2263419 
1830.706 2216724 2169969 2125737 2085562 2049991 2018909 1992040 1968952 
1834.563 1949205 1931925 1915885 1899485 1881353 1860725 1837811 1813739 
1838.421 1790016 1767790 1747234 1727388 1706640 1683532 1657609 1629925 
1842.278 1602816 1578945 1560313 1547087 1537500 1528221 1515616 1497007 
1846.135 1471639 1440809 1407440 1375157 1347235 1325908 1312142 1305551 
1849.993 1304926 1308320 1313386 1317619 1318860 1315504 1307366 1295587 
1853.850 1282704 1271702 1265266 1264558 1269021 1276380 1283637 1288110 
1857.708 1288450 1284831 1278613 1271254 1263629 1255343 1245106 1231372 
1861.565 1213475 1192261 1170127 1150461 1136450 1130137 1131563 1138786 
1865.423 1148289 1155841 1157520 1150390 1133256 1106762 1073589 1037978 
1869.280 1005244 980468 967777 968704 982212 1004594 1030442 1054243 1071643 
1873.620 1080455 1080833 1074679 1064670 1053234 1042084 1032138 1023863 
1877.477 1017569 1013653 1012174 1012762 1014194 1014808 1013043 1008425 
1881.334 1001907 995921 993411 996766 1006294 1020157 1034636 1045564 
1885.192 1049855 1046813 1038188 1027591 1018718 1013919 1013133 1013955 
1889.049 1012624 1005486 990510 968064 940731 912507 887580 869250 859109 
1893.389 857154 862039 871620 883581 895994 907113 915710 920512 920397 
1897.729 913961 900166 878284 848672 813201 775332 739748 711468 694377 
1902.068 690175 697139 710542 723681 729567 723316 703611 673137 637981 
1906.408 605724 583408 575536 583066 603394 631436 660903 686153 703361 
1910.747 711111 710652 705171 698928 696107 699555 710033 725532 742028 
1915.087 754348 758022 750589 732820 708422 683217 662915 651524 649643 
1919.427 654581 661068 663331 656614 638815 610633 575172 536664 499301 
1923.766 466244 439284 418716 403866 393325 385319 377720 368444 355586 
1928.106 338053 315865 290433 264137 240080 221039 209157 205315 209563 
1932.445 220978 238352 259890 283290 305433 322490 330205 325079 305229 
1936.785 271616 227804 179734 133834 95390 66866 47731 34758 24147 13108 
1941.607 1736 -7129 -8707 1319 24511 58105 95346 126652 143205 139759 116943 
1946.911 81252 43511 15148 5048 16789 48117 92456 141657 189031 231205 
1951.732 268295 302804 337006 371589 404402 431816 449793 456208 450972 
1956.072 435884 412974 382646 342871 290147 221112 136248 41027 -53180 
1960.412 -132330 -182867 -196120 -170567 -112392 -32913 53975 135801 203216 
1964.751 251495 279819 291101 290878 286968 287718 301670 333875 384044 
1969.091 445317 503978 542245 543363 495809 397896 258030 93269 -75415 
1973.430 -227575 -347370 -424898 -455507 -436795 -369066 -253146 -93994 
1977.288 97898 304347 502283 667822 782777 838315 836658 788508 710235 
1981.627 619266 531777 460282 413375 394215 401925 431312 474372 521345 
1985.967 563134 592868 607503 607803 597776 582334 566302 552740 543911 
1990.307 541892 549936 571903 611842 670176 742321 816475 876133 903427 
1994.646 885356 817879 708648 574673 438386 320311 234672 186047 170884 
1998.986 180442 205456 239068 277509 317875 355903 383212 388722 360498 
2003.325 291675 183379 47513 -95370 -220331 -305322 -336118 -311889 -243299 
2007.665 -149313 -51868 28674 77038 82368 39035 -54214 -193666 -370289 
2012.005 -568485 -767993 -945960 -1081512 -1158452 -1169781 -1117123 
2015.380 -1010932 -866847 -703828 -540405 -393873 -277660 -201215 -168277 
2019.237 -177479 -221446 -289473 -368121 -445291 -511196 -561081 -593350 
2023.095 -609476 -611186 -600349 -578017 -547102 -511931 -480461 -461362 
2026.952 -462674 -488159 -534655 -592624 -648902 -689320 -705291 -695041 
2030.810 -664405 -624509 -587833 -563402 -555451 -561494 -575164 -587633 
2034.667 -591014 -578849 -548058 -497393 -428916 -346586 -257732 -170930 
2038.524 -95971 -40727 -9608 -1507 -9781 -23610 -31371 -23418 4330 50358 
2043.346 107628 166801 218694 258308 285368 306136 330989 372501 441901 
2047.686 545076 679588 832802 983002 1104176 1171892 1170385 1096183 960086 
2052.025 784453 599430 435740 318952 262598 265951 314565 386343 458439 
2056.365 515083 550147 567273 575496 584534 599846 621323 643695 660080 
2060.705 665125 657809 641601 622808 607815 600965 602992 611974 624397 
2065.044 637359 649171 659899 670014 679927 688782 695357 698185 697008 
2069.384 692783 687471 682979 680504 679487 678463 675376 668967 659026 
2073.723 646612 632822 618129 601521 581143 554897 522488 485827 449703 
2078.063 420460 404127 404608 422566 454963 496707 541820 585650 625055 
2082.403 659124 687754 711161 728627 738918 740594 733012 716609 693243 
2086.742 665115 634252 601200 565143 524372 477394 424297 367486 311456 
2091.082 262328 225978 207014 207583 227122 262707 310010 363846 419272 
2095.421 471554 516976 552343 575874 586945 586653 577307 562472 545737 
2099.761 530627 519537 513881 514097 519853 529968 542844 555930 566170 
2104.101 570130 565117 550125 526588 498641 472436 454407 449816 460918 
2108.440 486471 522007 561152 597151 624345 638713 638647 624090 596566 
2112.780 558634 513955 466737 421668 382489 351821 330027 315700 305892 
2117.119 297925 289772 281327 273456 267301 262939 258864 252117 239456 
2121.459 218879 190814 157850 123889 91919 62670 33889 1471 -38587 -87787 
2126.281 -144222 -202792 -258028 -306559 -349826 -394356 -450111 -526488 
2130.138 -628747 -754918 -895926 -1037385 -1163772 -1261960 -1324815 
2133.513 -1351061 -1344558 -1312055 -1260860 -1197462 -1127999 -1058264 
2136.889 -994588 -943051 -908914 -894680 -900236 -922766 -959054 -1007004 
2140.746 -1067580 -1144831 -1244390 -1370196 -1522055 -1692549 -1867878 
2144.121 -2028612 -2154420 -2228086 -2240823 -2194599 -2102943 -1988534 
2147.497 -1878659 -1799129 -1769672 -1798554 -1883815 -2013579 -2171120 
2150.872 -2339337 -2504401 -2657365 -2794370 -2914986 -3021735 -3118639 
2154.247 -3211847 -3308986 -3418401 -3544458 -3683159 -3817418 -3916211 
2157.622 -3940120 -3852964 -3638754 -3312964 -2923029 -2533634 -2203664 
2160.998 -1968516 -1831368 -1770270 -1749450 -1735264 -1704727 -1649963 
2164.373 -1574144 -1485988 -1392322 -1296277 -1197575 -1097929 -1004790 
2167.748 -932128 -896393 -911004 -978546 -1088161 -1217376 -1338516 -1427230 
2171.605 -1470314 -1468990 -1437114 -1394771 -1361327 -1347933 -1355916 
2174.981 -1377042 -1399571 -1412369 -1409953 -1392620 -1365087 -1332311 
2178.356 -1297153 -1257712 -1209370 -1145762 -1062549 -959543 -841725 
2181.731 -717738 -598111 -491992 -405026 -338252 -289605 -255105 -231555 
2185.589 -217389 -213022 -218837 -234022 -254778 -275784 -290918 -297576 
2189.446 -297483 -297599 -307271 -334859 -382382 -444072 -506543 -553732 
2193.303 -572044 -555594 -507900 -441010 -369472 -305695 -255281 -216945 
2197.161 -184790 -153162 -120557 -90947 -71726 -70198 -88887 -124024 -166043 
2201.500 -203593 -227557 -234123 -225123 -205950 -182413 -158117 -133432 
2205.358 -107854 -81271 -56511 -38458 -32765 -42029 -64224 -91709 -114162 
2209.698 -121601 -108316 -74072 -24216 33962 93272 150208 204417 258232 
2214.037 313962 372879 433612 493709 550473 602469 649517 692493 731642 
2218.377 766105 793197 809140 810243 794240 760848 712446 653308 590129 
2222.716 530562 483368 456672 457267 488653 549849 635038 734398 835533 
2227.056 926305 996842 1041110 1057316 1047675 1017149 972895 922464 873574 
2231.396 832399 802794 785346 777401 773728 768561 757349 738858 715252 
2235.735 691515 672862 663090 663039 670938 683628 698879 716143 737289 
2240.075 764404 798468 837471 876581 909591 931290 939751 937424 929624 
2244.414 922601 920337 923246 927756 928736 921751 905888 884293 863573 
2248.754 850936 851802 867197 893495 923243 947523 958582 951885 927244 
2253.094 889220 845650 805990 779240 771914 786482 821188 870206 925467 
2257.433 978532 1022530 1053247 1069700 1073008 1065584 1049892 1028487 
2261.291 1003779 979005 958238 946504 948349 966432 1000531 1046895 1099250 
2265.630 1150295 1193666 1225532 1244694 1252484 1251411 1244308 1233534 
2269.488 1221241 1209432 1200483 1196617 1199728 1210505 1228111 1250456 
2273.345 1274844 1298958 1321599 1343002 1364151 1386238 1409930 1434709 
2277.202 1459260 1481835 1500930 1515736 1526616 1534770 1542346 1551913 
2281.060 1565991 1586437 1613712 1646204 1680350 1710928 1732656 1741672 
2284.917 1737101 1721479 1700214 1679645 1665012 1658366 1658183 1659851 
2288.775 1657810 1647409 1626987 1598070 1564685 1531737 1503311 1481379 
2292.632 1465879 1455100 1446932 1439802 1433055 1426954 1422246 1419613 
2296.490 1419409 1421660 1426129 1432259 1439342 1446406 1452329 1456136 
2300.347 1457601 1457427 1457725 1461064 1470055 1486042 1508725 1535754 
2304.204 1563585 1588355 1607025 1617973 1621123 1617469 1608664 1596353 
2308.062 1582220 1567881 1555178 1545827 1541277 1542135 1547892 1556949 
2311.919 1567318 1577217 1585891 1593705 1601920 1611923 1624604 1639944 
2315.777 1657288 1675758 1694981 1715129 1737038 1761447 1788930 1819576 
2319.634 1853422 1890817 1932592 1979396 2030581 2082857 2129711 2161869 
2323.491 2169404 2144376 2083494 1989457 1870719 1739700 1610074 1493799 
2327.349 1398952 1328659 1281469 1252763 1236795 1228269 1223295 1219468 
2331.206 1215468 1210410 1203693 1195066 1184949 1174509 1165466 1159494 
2335.064 1157714 1160176 1165959 1173663 1181918 1189880 1197352 1204310 
2338.921 1210683 1216000 1219561 1220723 1219546 1216829 1213994 1212367 
2342.779 1212452 1213471 1213453 1210072 1201579 1187762 1170237 1151962 
2346.636 1136277 1125777 1121282 1121882 1125440 1129283 1131506 1131132 
2350.493 1128411 1124138 1119217 1114184 1108960 1103103 1096094 1087671 
2354.351 1077961 1067451 1056717 1046319 1036541 1027429 1018836 1010342 
2358.208 1001641 992321 982240 971502 960538 950014 940513 932185 924636 
2362.548 916752 907152 894745 879403 862233 845579 832303 824737 823917 
2366.887 829002 837529 846218 852071 853345 849917 843187 835314 828484 
2371.227 824241 823443 826351 832946 843199 856945 873761 892579 911947 
2375.567 930341 946657 960828 973703 986520 1000132 1014237 1027107 1036122 
2379.906 1038857 1034319 1023781 1010650 999380 994068 996748 1006772 
2383.764 1021093 1035644 1046924 1053322 1055691 1056639 1059241 1065592 
2387.621 1075862 1088265 1099769 1107511 1109623 1106181 1098664 1089447 
2391.479 1080867 1074439 1070603 1068896 1068374 1068117 1067418 1065893 
2395.336 1063382 1059771 1054939 1048806 1041355 1032779 1023365 1013603 
2399.193 1004079 995515 988642 984288 982936 984860 989645 996369 1003732 
2403.533 1010510 1016005 1020279 1024073 1028552 1034482 1041856 1049789 
2407.390 1056800 1061508 1063542 1063764 1064267 1067496 1075415 1088413 
2411.248 1105262 1123298 1139342 1150730 1156231 1155896 1150959 1142923 
2415.105 1133129 1122094 1110012 1096956 1083427 1070461 1059368 1051340 
2418.963 1046862 1045573 1046421 1048120 1049706 1050644 1051048 1051055 
2422.820 1050689 1049503 1046856 1042214 1035679 1028135 1021149 1016426 
2426.677 1015264 1018015 1024081 1032262 1041202 1049724 1057096 1062616 
2430.535 1065503 1064730 1059172 1048264 1032585 1014240 996672 983756 
2434.392 978741 982998 995630 1013662 1033106 1050367 1063250 1071407 
2438.250 1076156 1079267 1082248 1085263 1087291 1086517 1081298 1070822 
2442.107 1055791 1038215 1020856 1006729 998369 997478 1004667 1019368 
2445.965 1039944 1063554 1086588 1105015 1115108 1114376 1102241 1080370 
2449.822 1052495 1023411 997880 979452 969815 968481 973666 982733 993560 
2454.162 1004631 1015444 1025975 1036174 1045498 1052781 1056424 1054970 
2458.019 1047610 1034795 1017971 999563 982147 967893 958004 952514 950471 
2462.359 950484 951271 952116 952945 954367 956935 960814 965495 969765 
2466.698 972206 971728 968255 962932 957723 954872 956008 961273 969324 
2471.038 977585 983180 983984 979587 971262 961686 954025 950770 953106 
2475.377 960474 971157 982804 993381 1001611 1007051 1009982 1010701 1009313 
2479.717 1005612 999114 989611 977434 963769 950407 939539 933223 932973 
2484.057 939430 952302 970438 991984 1014572 1035702 1052901 1064091 1067785 
2488.396 1063612 1052235 1035575 1016388 998121 984181 977383 979589 991136 
2492.736 1010875 1036371 1064169 1090674 1112669 1127936 1135649 1136437 
2496.593 1131925 1124302 1115590 1107276 1099997 1093786 1088275 1083214 
2500.451 1078671 1075079 1073018 1072899 1074671 1077843 1081443 1084475 
2504.308 1085975 1085421 1082469 1076993 1068730 1057454 1042879 1025331 
2508.166 1005657 985678 967682 954111 946869 946783 953326 964918 979387 
2512.505 994627 1009036 1021880 1032889 1042279 1050025 1056066 1060225 
2516.363 1062575 1063570 1064304 1065931 1069472 1074961 1081573 1087446 
2520.220 1090631 1089667 1084198 1075512 1066022 1058630 1055887 1058900 
2524.077 1067377 1079559 1092980 1105164 1114396 1119928 1122079 1121819 
2527.935 1120434 1119150 1119033 1120660 1124227 1129405 1135406 1140877 
2531.792 1144154 1143677 1138501 1128415 1114340 1097954 1081353 1066317 
2535.650 1054016 1044902 1038848 1035566 1035110 1037827 1044393 1055063 
2539.507 1069331 1085800 1102234 1116305 1126367 1131974 1134147 1134957 
2543.365 1136790 1141391 1149282 1159554 1170375 1179565 1185612 1187943 
2547.222 1187222 1184981 1182935 1182416 1184014 1187252 1191004 1193766 
2551.079 1194197 1191355 1185204 1176573 1166930 1158242 1152441 1150914 
2554.937 1154322 1162137 1172865 1184351 1194345 1200917 1203165 1201198 
2558.794 1196043 1189386 1183086 1178637 1176998 1178352 1182356 1188199 
2562.652 1194971 1201908 1208634 1215303 1222644 1231638 1243293 1258151 
2566.509 1275924 1295436 1314821 1331960 1345215 1353979 1358895 1361520 
2570.366 1363767 1367058 1371618 1376344 1379164 1377852 1371033 1358695 
2574.224 1342522 1325344 1310337 1299876 1295120 1295708 1300148 1306517 
2578.081 1313270 1319739 1326246 1333923 1343922 1357118 1373533 1392268 
2581.939 1411697 1429776 1444640 1454846 1459870 1459978 1456294 1450318 
2585.796 1443559 1437110 1431458 1426403 1421129 1414916 1407328 1398600 
2589.654 1389800 1382439 1378065 1377696 1381516 1388615 1397414 1406007 
2593.511 1412951 1417609 1420440 1422872 1426873 1434193 1445935 1461865 
2597.368 1480463 1499062 1514451 1523738 1524999 1517913 1503963 1485975 
2601.226 1467512 1451909 1441516 1437145 1438285 1443225 1450091 1457186 
2605.083 1463603 1469086 1473784 1477810 1481041 1482987 1483077 1480987 
2608.941 1477075 1472180 1467617 1464523 1463690 1465152 1468578 1473435 
2612.798 1479478 1486874 1496204 1507916 1521907 1537171 1551905 1563800 
2616.656 1571014 1572535 1568867 1561760 1553745 1547196 1543882 1544290 
2620.513 1547813 1553097 1558693 1563533 1567265 1570178 1573031 1576644 
2624.370 1581747 1588810 1598099 1609580 1623088 1638138 1653929 1669373 
2628.228 1683164 1694178 1701721 1705765 1706953 1706337 1705039 1703723 
2632.085 1702531 1700868 1698001 1693300 1686719 1678843 1670929 1664298 
2635.943 1660030 1658579 1659839 1663113 1667727 1673061 1678947 1685421 
2639.800 1692599 1700419 1708518 1716326 1723401 1729599 1735114 1740596 
2643.657 1746543 1753124 1759832 1765572 1768867 1768504 1764009 1755755 
2647.515 1745191 1734099 1724375 1717277 1713269 1711922 1712350 1713437 
2651.372 1714185 1713873 1712098 1708493 1702843 1694988 1684953 1673059 
2655.230 1660028 1646941 1634921 1624862 1617184 1611736 1607688 1603996 
2659.087 1599463 1593053 1584156 1572451 1558115 1541399 1522848 1503085 
2662.945 1482775 1462639 1443276 1425153 1408545 1393542 1380091 1368155 
2666.802 1357737 1348917 1341810 1336409 1332545 1329879 1327873 1326028 
2670.659 1323994 1321682 1319288 1317145 1315618 1314897 1315000 1315649 
2674.517 1316433 1316912 1316800 1315899 1314360 1312336 1310132 1308026 
2678.374 1306117 1304306 1302359 1299909 1296623 1292374 1287352 1282139 
2682.232 1277572 1274450 1273411 1274557 1277402 1281103 1284508 1286763 
2686.089 1287408 1286550 1284756 1282754 1281237 1280512 1280598 1281260 
2689.947 1282219 1283233 1284085 1284514 1284203 1282566 1279043 1273192 
2693.804 1265146 1255510 1245528 1236663 1230178 1226832 1226582 1228725 
2697.661 1232124 1235741 1238844 1241243 1243128 1244869 1246728 1248724 
2701.519 1250512 1251604 1251601 1250340 1248028 1245063 1242098 1239647 
2705.376 1238147 1237779 1238561 1240305 1242846 1245915 1249301 1252744 
2709.234 1255979 1258661 1260365 1260553 1258698 1254418 1247684 1238860 
2713.091 1228843 1218877 1210245 1203899 1200287 1199055 1199450 1200427 
2716.948 1201313 1201790 1202230 1203226 1205178 1208031 1210995 1212894 
2720.806 1212408 1208833 1202406 1194209 1185965 1179422 1175821 1175391 
2724.663 1177541 1180978 1184397 1186650 1187307 1186495 1184742 1182733 
2728.521 1181281 1180905 1182036 1184821 1189151 1194635 1200541 1206102 
2732.378 1210677 1213974 1216311 1218328 1220950 1224671 1229456 1234381 
2736.236 1238088 1239067 1236325 1229862 1220637 1210347 1200851 1193627 
2740.093 1189408 1188095 1189111 1191568 1194742 1198164 1201542 1204554 
2743.950 1206905 1208210 1208239 1207137 1205520 1204316 1204657 1207341 
2747.808 1212685 1220275 1229276 1238420 1246646 1253116 1257389 1259377 
2751.665 1259202 1257045 1253127 1247632 1240927 1233335 1225244 1217048 
2755.523 1209090 1201544 1194707 1188864 1184329 1181389 1180304 1181073 
2759.380 1183459 1187073 1191474 1196274 1201232 1206146 1210757 1214723 
2763.238 1217608 1218847 1218282 1216080 1212951 1209775 1207458 1206512 
2767.095 1206805 1207719 1208319 1207927 1206303 1203704 1200901 1198505 
2770.952 1196887 1195816 1194725 1192957 1190186 1186681 1183156 1180493 
2774.810 1179464 1180189 1182381 1185327 1188515 1191844 1195760 1201136 
2778.667 1208755 1218964 1231428 1244986 1258178 1269486 1277809 1282716 
2782.525 1284252 1282984 1279655 1275085 1270197 1265810 1262831 1261977 
2786.382 1263679 1267947 1274167 1281398 1288584 1294803 1299865 1304014 
2790.240 1308024 1312727 1318685 1325869 1333684 1341071 1346945 1350369 
2794.097 1351088 1349309 1345908 1341917 1338467 1336412 1336184 1337773 
2797.954 1340703 1344308 1347897 1350971 1353577 1356155 1359579 1364704 
2801.812 1372167 1382113 1393950 1406582 1418703 1429109 1437055 1442380 
2805.669 1445450 1446894 1447406 1447438 1447329 1447210 1447233 1447679 
2809.527 1448954 1451379 1455190 1460294 1466361 1472911 1479643 1486358 
2813.384 1493351 1500930 1509579 1519526 1530742 1542880 1555494 1568210 
2817.241 1580789 1593278 1605858 1618567 1631290 1643575 1654784 1664237 
2821.099 1671524 1676623 1680228 1683435 1687743 1694642 1705396 1720529 
2824.956 1739978 1762752 1787285 1811641 1834062 1853127 1868387 1880152 
2828.814 1889704 1898679 1908810 1921308 1936774 1954915 1974877 1995544 
2832.671 2015926 2035450 2054058 2072158 2090296 2109063 2128777 2149456 
2836.529 2170920 2192864 2215134 2237675 2260649 2284304 2308941 2334904 
2840.386 2362330 2391219 2421546 2452794 2484424 2515563 2545471 2573442 
2844.243 2599370 2623713 2647626 2672669 2700414 2732070 2767950 2807249 
2848.101 2848158 2888214 2924682 2955099 2977622 2991216 2995466 2990562 
2851.958 2977130 2955970 2928148 2894893 2857572 2817503 2775992 2734007 
2855.816 2692341 2651381 2611504 2573046 2536627 2502777 2472122 2444943 
2859.673 2421278 2400613 2382351 2365843 2350859 2337475 2326407 2318556 
2863.531 2314838 2315924 2322115 2333212 2348813 2368223 2390770 2415837 
2867.388 2442932 2471534 2501461 2532696 2565491 2600373 2638044 2679141 
2871.245 2724115 2772981 2825446 2880852 2938513 2997711 3057856 3118428 
2875.103 3178826 3238167 3295374 3349210 3398599 3442850 3481914 3516176 
2878.960 3546388 3573081 3596431 3615843 3630203 3638162 3638702 3631565 
2882.818 3617562 3598453 3576726 3554828 3534844 3517816 3503861 3492146 
2886.675 3481518 3470819 3459577 3447898 3436710 3427170 3420461 3417195 
2890.532 3417381 3420324 3424940 3430149 3435380 3440582 3446506 3454195 
2894.390 3464805 3479058 3497025 3517941 3540595 3563318 3584868 3604372 
2898.247 3621564 3636905 3651194 3665273 3679861 3695247 3711591 3728793 
2902.105 3747113 3766877 3788979 3814177 3843097 3875626 3910822 3946955 
2905.962 3981926 4013886 4041886 4066241 4088647 4111692 4138163 4170207 
2909.820 4208799 4253477 4302785 4354682 4407407 4459951 4512333 4565404 
2913.677 4620436 4678545 4740328 4805521 4873269 4942138 5010523 5076856 
2917.534 5139930 5198856 5253252 5302968 5348302 5389677 5427503 5462121 
2921.392 5493653 5521970 5546931 5568415 5586579 5601693 5614425 5625469 
2925.249 5635575 5645492 5655950 5667853 5682192 5700008 5722337 5749712 
2929.107 5782137 5818991 5859262 5901858 5946270 5992657 6042232 6096907 
2932.964 6159048 6230923 6314433 6410895 6520989 6644778 6781956 6931672 
2936.822 7092874 7263991 7443379 7629129 7819410 8012284 8205872 8397930 
2940.679 8586022 8767226 8938510 9096875 9239626 9364512 9469674 9553479 
2944.536 9614233 9650304 9660220 9643234 9599746 9531611 9442001 9334881 
2948.394 9214285 9083580 8945142 8800372 8650347 8496197 8339681 8182903 
2952.251 8028172 7877075 7730340 7587682 7448178 7311083 7176267 7044518 
2956.109 6917432 6796755 6683623 6578385 6480197 6387834 6299926 6215662 
2959.966 6134913 6058015 5985414 5917157 5852724 5791208 5731664 5673389 
2963.823 5616303 5560659 5507184 5456380 5408501 5363360 5320668 5280240 
2967.681 5242352 5207709 5177436 5152708 5134469 5123057 5118184 5118676 
2971.538 5123042 5129498 5136643 5143565 5150345 5157877 5167790 5181749 
2975.396 5201205 5226674 5257898 5293824 5333288 5375540 5420742 5470010 
2979.253 5525142 5588128 5660477 5742944 5835533 5937822 6049572 6170989 
2983.111 6303025 6446955 6604104 6775212 6960144 7157960 7367018 7585278 
2986.968 7810645 8041066 8274676 8509605 8744023 8975878 9203179 9423507 
2990.825 9634406 9832742 10015206 10178319 10318869 10434528 10524231 
2994.201 10588179 10627908 10645481 10643154 10622485 10584631 10530142 
2997.576 10459492 10373475 10273428 10161009 10038038 9905984 9765849 
3000.951 9618224 9463481 9302049 9134676 8962383 8786383 8607641 8426786 
3004.809 8244208 8059964 7874223 7687295 7499711 7312267 7125634 6940608 
3008.666 6757855 6578185 6402362 6231281 6065545 5905434 5750715 5600632 
3012.523 5454129 5310229 5168344 5028508 4891112 4756914 4626590 4500585 
3016.381 4379208 4262646 4150990 4044334 3942710 3845643 3752314 3661634 
3020.238 3572541 3484479 3397742 3313408 3232980 3157828 3088459 3024579 
3024.096 2964830 2907588 2851583 2796516 2742806 2691670 2644047 2600355 
3027.953 2560061 2521995 2484951 2448152 2411698 2376655 2344266 2315556 
3031.811 2290624 2268745 2248284 2227605 2205430 2181514 2156430 2131497 
3035.668 2108205 2087771 2070758 2057083 2046013 2036493 2027237 2017007 
3039.525 2004791 1989822 1971731 1950640 1926991 1901824 1876358 1851972 
3043.383 1829996 1811330 1796555 1785602 1777846 1772185 1767280 1762005 
3047.240 1755398 1747327 1738158 1728792 1720161 1712961 1707182 1702343 
3051.098 1697492 1691770 1684704 1676490 1667832 1659715 1652980 1648005 
3054.955 1644699 1642550 1641087 1640095 1639595 1639823 1640933 1642791 
3058.813 1644990 1646850 1647859 1647934 1647444 1647201 1648015 1650400 
3062.670 1654256 1659007 1663554 1666920 1668334 1667630 1665002 1660996 
3066.527 1656309 1651630 1647476 1644174 1641901 1640728 1640429 1640790 
3070.385 1641697 1643118 1645354 1648817 1653868 1660509 1667914 1674569 
3074.242 1678442 1677405 1670075 1656253 1637145 1615207 1593441 1574849 
3078.100 1561661 1554899 1554358 1559009 1567131 1576887 1586389 1594180 
3081.957 1599069 1600384 1597956 1592097 1583392 1572658 1560526 1547532 
3085.814 1533947 1520110 1506478 1493804 1483134 1475493 1471440 1470987 
3089.672 1473369 1477325 1481490 1484776 1486551 1486669 1485233 1482387 
3093.529 1477996 1471915 1464090 1455051 1445667 1437432 1431777 1429698 
3097.387 1431549 1436844 1444414 1452900 1460953 1467534 1471781 1473132 
3101.244 1471252 1466099 1458223 1448858 1439886 1433448 1431373 1434559 
3105.102 1442549 1453766 1465862 1476432 1483686 1486821 1485771 1481003 
3108.959 1472704 1461112 1446091 1427879 1407405 1386386 1367238 1352367 
3112.816 1343472 1341149 1344618 1352163 1361910 1372338 1382646 1392821 
3116.674 1403136 1413632 1423830 1432674 1438900 1441441 1439930 1434907 
3120.531 1427544 1419467 1412047 1406297 1402532 1400668 1400341 1401132 
3124.389 1402812 1405288 1408477 1412325 1416520 1420685 1424339 1427156 
3128.246 1428978 1430214 1431462 1433725 1437856 1444440 1453313 1463626 
3132.104 1473775 1481860 1486013 1485035 1478514 1467046 1452006 1435085 
3135.961 1418002 1402261 1388795 1378234 1370822 1366432 1364752 1365150 
3139.818 1366862 1369122 1371329 1373453 1375766 1378838 1383047 1388130 
3143.676 1393151 1396522 1396505 1392150 1383677 1372729 1362104 1354793 
3147.533 1353032 1357526 1367184 1379640 1391983 1402034 1408818 1412894 
3151.391 1415790 1419256 1424381 1431101 1438150 1443714 1445983 1444081 
3155.248 1438259 1429994 1421348 1414612 1411329 1412296 1417046 1424400 
3159.105 1432698 1440269 1445811 1448814 1449438 1448441 1446904 1445791 
3162.963 1445768 1447005 1449154 1451790 1454460 1457108 1460034 1463818 
3166.820 1468909 1475295 1482320 1488689 1492747 1493038 1488753 1480125 
3170.678 1468383 1455524 1443608 1434492 1428985 1427014 1427560 1429190 
3174.535 1430364 1430082 1427843 1423903 1418802 1413499 1408672 1404982 
3178.393 1402663 1401791 1402333 1404270 1407549 1412117 1417974 1424867 
3182.250 1432423 1440120 1447308 1453411 1457960 1460815 1462070 1462196 
3186.107 1461755 1461368 1461451 1462141 1463163 1463940 1463713 1461862 
3189.965 1458163 1452914 1446970 1441558 1437918 1437002 1439058 1443637 
3193.822 1449618 1455548 1459875 1461411 1459556 1454318 1446426 1437139 
3197.680 1428129 1421268 1418291 1420486 1428283 1441021 1456936 1473307 
3201.537 1487166 1495958 1498189 1493984 1484908 1473738 1463595 1457109 
3205.395 1456029 1460649 1469994 1482102 1494505 1504710 1510523 1510611 
3209.252 1504561 1493296 1478728 1463867 1451885 1445619 1446632 1454991 
3213.109 1469033 1486072 1503086 1517673 1528616 1536019 1540720 1543839 
3216.967 1545891 1546716 1545245 1540398 1531226 1517739 1500680 1481559 
3220.824 1462143 1444029 1428381 1416041 1407312 1402355 1400990 1402667 
3224.682 1406481 1411376 1416186 1420371 1424039 1428183 1434252 1443618 
3228.539 1456847 1473518 1491948 1509813 1524850 1535424 1540967 1542020 
3232.396 1539554 1534770 1528284 1520389 1510975 1499977 1487644 1474735 
3236.254 1462202 1451043 1441853 1434731 1429449 1425727 1423457 1422856 
3240.111 1424401 1428366 1434784 1443026 1451966 1460323 1466924 1471269 
3243.969 1473334 1473770 1473272 1472426 1471471 1470255 1468484 1466050 
3247.826 1463223 1460787 1459611 1460611 1464092 1469826 1476933 1484227 
3251.684 1490675 1495785 1499688 1503070 1506877 1511786 1517852 1524498 
3255.541 1530568 1534786 1536104 1534259 1529620 1523365 1516934 1511942 
3259.398 1509666 1511057 1516336 1525318 1536958 1549640 1561180 1569182 
3263.256 1571436 1566628 1554634 1536854 1515735 1494253 1475053 1459698 
3267.113 1448519 1440574 1434486 1428889 1423268 1417811 1413435 1411246 
3270.971 1411947 1415812 1422535 1431626 1442572 1454891 1467982 1480816 
3274.828 1491756 1498961 1500575 1495783 1485065 1470714 1455997 1444537 
3278.686 1438999 1440396 1447677 1458089 1468154 1474751 1475880 1471186 
3282.543 1461985 1450584 1439654 1431655 1428150 1429756 1435936 1445319 
3286.400 1455969 1465876 1473442 1477950 1479675 1479760 1479735 1480943 
3290.258 1484002 1488604 1493670 1497945 1500446 1501029 1500334 1499263 
3294.115 1498722 1499007 1499580 1499656 1498518 1496265 1493724 1492386 
3297.973 1493653 1498333 1505886 1514911 1523342 1529477 1532575 1533064 
3301.830 1532204 1531521 1531878 1533218 1534239 1533069 1527903 1517722 
3305.688 1502825 1484670 1465650 1448430 1435181 1427386 1425325 1428312 
3309.545 1434910 1443250 1451337 1457577 1460616 1459864 1455220 1447161 
3313.402 1436682 1425170 1414254 1405732 1401222 1401781 1407776 1418446 
3317.260 1432028 1446114 1458051 1465861 1468517 1466375 1460821 1453787 
3321.117 1447118 1442059 1438967 1437597 1437427 1438047 1439280 1441302 
3324.975 1444293 1448274 1453048 1458346 1464014 1470284 1477481 1485940 
3328.832 1495515 1505339 1513930 1519713 1521483 1519160 1513680 1506937 
3332.689 1500863 1496851 1495327 1495800 1497378 1499470 1502009 1505488 
3336.547 1510497 1517061 1524186 1530151 1532977 1531432 1525559 1516956 
3340.404 1508039 1501177 1497534 1496911 1497608 1497455 1494772 1489112 
3344.262 1481289 1472928 1465392 1459243 1453933 1448162 1440822 1431732 
3348.119 1422036 1413894 1409728 1411063 1417979 1428766 1440554 1450114 
3351.977 1454810 1453504 1446589 1435957 1424224 1414317 1408561 1408348 
3355.834 1413849 1423945 1436414 1448416 1457253 1461003 1459065 1452429 
3359.691 1443329 1434530 1428530 1426845 1429749 1436378 1445404 1455459 
3363.549 1465651 1475690 1485372 1494595 1502650 1508769 1512152 1512538 
3367.406 1510443 1507063 1503863 1502127 1502207 1503832 1505942 1507376 
3371.264 1507445 1505945 1503293 1500121 1496836 1493538 1489878 1485369 
3375.121 1479764 1473321 1466538 1460262 1455171 1451705 1450081 1450469 
3378.979 1453152 1458539 1466811 1477745 1490233 1502216 1511079 1514328 
3382.836 1510400 1499392 1483059 1464504 1447135 1433784 1425844 1423169 
3386.693 1424176 1426895 1429489 1431019 1431585 1431993 1433206 1435825 
3390.551 1439819 1444573 1449249 1453133 1456007 1458110 1460066 1462431 
3394.408 1465489 1469003 1472314 1474739 1475664 1474942 1472821 1470005 
3398.266 1467257 1465418 1465103 1466789 1470650 1476742 1484566 1493383 
3402.123 1501941 1508782 1512379 1511796 1506860 1498288 1487549 1476522 
3405.980 1466770 1459364 1454554 1452127 1451591 1452686 1455264 1459302 
3409.838 1464392 1469540 1473149 1473449 1469239 1460632 1449329 1438343 
3413.695 1431134 1430354 1436907 1449461 1464820 1479052 1488774 1492174 
3417.553 1489423 1482564 1474354 1467583 1464174 1465021 1469955 1478312 
3421.410 1489089 1501277 1513493 1524327 1532024 1535243 1533224 1526389 
3425.268 1516159 1504677 1494019 1485640 1479828 1475896 1472788 1469657 
3429.125 1466433 1463782 1462611 1463700 1466856 1471115 1475043 1477444 
3432.982 1477823 1476963 1476331 1477527 1481654 1488587 1497051 1504978 
3436.840 1510331 1511567 1508039 1500023 1488404 1474595 1459898 1445900 
3440.697 1434167 1426172 1423114 1425547 1433036 1444213 1457076 1469425 
3444.555 1479624 1486920 1491475 1494082 1495595 1496439 1496498 1495138 
3448.412 1491781 1486162 1478636 1470243 1462264 1455946 1452142 1451306 
3452.270 1453657 1459185 1468019 1480184 1495498 1513499 1533116 1552879 
3456.127 1571272 1586954 1599064 1607299 1611970 1613735 1613508 1612169 
3459.984 1610621 1609629 1609772 1611526 1615078 1620498 1627810 1636968 
3463.842 1648033 1661120 1676012 1692186 1708645 1724088 1737085 1746670 
3467.699 1752701 1755909 1757735 1759805 1763259 1768425 1774628 1780495 
3471.557 1784548 1785785 1783973 1779831 1774803 1770635 1769064 1771453 
3475.414 1778398 1789750 1804276 1819904 1833730 1842767 1844574 1838378 
3479.271 1825507 1809459 1795193 1787845 1791431 1807543 1835012 1870507 
3483.129 1909643 1948437 1984129 2015650 2043172 2067382 2088757 2107142 
3486.986 2122042 2133139 2140619 2145557 2149547 2154089 2160074 2167716 
3490.844 2176475 2185800 2195597 2206454 2219417 2235473 2254907 2276876 
3494.701 2299723 2321474 2340718 2357098 2371508 2385653 2401156 2418973 
3498.559 2438846 2459470 2478911 2495283 2507264 2514578 2517649 2517512 
3502.416 2515500 2512802 2510422 2508997 2508622 2508873 2508746 2506859 
3506.273 2501807 2492667 2479438 2463220 2445816 2429344 2415620 2405426 
3510.131 2398538 2393917 2390051 2385959 2381074 2375574 2369942 2364592 
3513.988 2359691 2354965 2350073 2344789 2339208 2333696 2328763 2324622 
3517.846 2321165 2317684 2313445 2307559 2299505 2289165 2276726 2262604 
3521.703 2247366 2231700 2216338 2202205 2189953 2179818 2171209 2162764 
3525.561 2152505 2138654 2120180 2097853 2074160 2052894 2037879 2031938 
3529.418 2035746 2047236 2062322 2075789 2082750 2079962 2066497 2043778 
3533.275 2015018 1984311 1955570 1931951 1915183 1905623 1902360 1903710 
3537.133 1907554 1912038 1915789 1918353 1919777 1920573 1921025 1920811 
3540.990 1918911 1913862 1904356 1889952 1871720 1852095 1834308 1821534 
3544.848 1815650 1816728 1822896 1830895 1837174 1838981 1835080 1826134 
3548.705 1813890 1800930 1789466 1780987 1776112 1774651 1776035 1779693 
3552.563 1784959 1791251 1797771 1803745 1808304 1810980 1811571 1810625 
3556.420 1809046 1807908 1807832 1808792 1809849 1809545 1806175 1798723 
3560.277 1787225 1773146 1759148 1748501 1744083 1747721 1759444 1777357 
3564.135 1798359 1818581 1834842 1845097 1849113 1848215 1844625 1840640 
3567.992 1837827 1836520 1835990 1834731 1831352 1825136 1816284 1805959 
3571.850 1795763 1787205 1781124 1777604 1775892 1774957 1773807 1771998 
3575.707 1769756 1767921 1767501 1769237 1773372 1779283 1785747 1791302 
3579.564 1794590 1794892 1792158 1787202 1781237 1775523 1770864 1767452 
3583.422 1764928 1762572 1759542 1755262 1749552 1742506 1734234 1724722 
3587.279 1713706 1700872 1685742 1668481 1649523 1629865 1610553 1592500 
3591.137 1576055 1561170 1547219 1533748 1520549 1508106 1497536 1490439 
3594.994 1488294 1492041 1501696 1516094 1532977 1549372 1562293 1569330 
3598.852 1569300 1562765 1552024 1540547 1532139 1529898 1535140 1546747 
3602.709 1561554 1575244 1583595 1584024 1576383 1563202 1548679 1537617 
3606.566 1533756 1538812 1552187 1571145 1592007 1610870 1624824 1631845 
3610.424 1631193 1622997 1608235 1588539 1566205 1544013 1525009 1511975 
3614.281 1506627 1509404 1519111 1533297 1549134 1564032 1576381 1585708 
3618.139 1592822 1599029 1605711 1613909 1623879 1635355 1647599 1659713 
3621.996 1671080 1681516 1691483 1702035 1714690 1730895 1751587 1776368 
3625.854 1803469 1829609 1850897 1863668 1865874 1857790 1842308 1823977 
3629.711 1807906 1798097 1796280 1801799 1811958 1823337 1832954 1839299 
3633.568 1842697 1844867 1848035 1854361 1865015 1879976 1898284 1918220 
3637.426 1937823 1955260 1968775 1977129 1979747 1976835 1969586 1959979 
3641.283 1950576 1943909 1941918 1945609 1954934 1969334 1987750 2009487 
3645.141 2034082 2061331 2090734 2121301 2151097 2177574 2198009 2210520 
3648.998 2214392 2210638 2201587 2190509 2180706 2174775 2174228 2179410 
3652.855 2189796 2204334 2221553 2239933 2257460 2271946 2280883 2282069 
3656.713 2274025 2256650 2231530 2202131 2172803 2148216 2132032 2126045 
3660.570 2129902 2141296 2156690 2172323 2185354 2194070 2198051 2197811 
3664.428 2194148 2187691 2178536 2166658 2152068 2135223 2116972 2098361 
3668.285 2080264 2062965 2046057 2028753 2010239 1990368 1970001 1950925 
3672.143 1935269 1924698 1919716 1919130 1920392 1919868 1914279 1901380 
3676.000 1880863 1854429 1825095 1796622 1771979 1752951 1739712 1731030 
3679.857 1724898 1719528 1713725 1707539 1701907 1698245 1697568 1700072 
3683.715 1704809 1709831 1713053 1712648 1707750 1698803 1687113 1674507 
3687.572 1662825 1653264 1646344 1641916 1639364 1637886 1636470 1633954 
3691.430 1629138 1621023 1609161 1593998 1577300 1561700 1550187 1545099 
3695.287 1547217 1555517 1567208 1578803 1587286 1591019 1590051 1585691 
3699.145 1579697 1573107 1565823 1556853 1544873 1529300 1511063 1492315 
3703.002 1475954 1464494 1459149 1459487 1463678 1469629 1475608 1480918 
3706.859 1485833 1490997 1496659 1502311 1506921 1509412 1509447 1507931 
3710.717 1506787 1508186 1513645 1522992 1534378 1544800 1551000 1550804 
3714.574 1543997 1531995 1517803 1504715 1495502 1491980 1494448 1502189 
3718.432 1513637 1526707 1539184 1548827 1553770 1552876 1545869 1533633 
3722.289 1517984 1501062 1484860 1470821 1459618 1451452 1446484 1445152 
3726.146 1448279 1456801 1471057 1490205 1512090 1533372 1550571 1560814 
3730.004 1562888 1557487 1546805 1533950 1522041 1513325 1509089 1509546 
3733.861 1514236 1522387 1533002 1544694 1555927 1564727 1569429 1569081 
3737.719 1563795 1555405 1546664 1540898 1540697 1547275 1559649 1574981 
3741.576 1589291 1598699 1600470 1594001 1581006 1564964 1550160 1540414 
3745.434 1537882 1542678 1552901 1565434 1577006 1585170 1588911 1588664 
3749.291 1586196 1583452 1582025 1582492 1584226 1585735 1585236 1581297 
3753.148 1573376 1561888 1548050 1533493 1519851 1508379 1500120 1495427 
3757.006 1494388 1496715 1501745 1508586 1516133 1523292 1529096 1533027 
3760.863 1534871 1534930 1533856 1532467 1531808 1533086 1537286 1545326 
3764.721 1557398 1572736 1589466 1604726 1615279 1618221 1612226 1597719 
3768.578 1577449 1555411 1536030 1522812 1517295 1518813 1524822 1532118 
3772.436 1537626 1539816 1538688 1535742 1533060 1532523 1535017 1540075 
3776.293 1546005 1550548 1551529 1547583 1538404 1525105 1509579 1494328 
3780.150 1481438 1472249 1466862 1464332 1463064 1461443 1458632 1454910 
3784.008 1451731 1451081 1455023 1464420 1478782 1496199 1513610 1528063 
3787.865 1537213 1540133 1537225 1529893 1520038 1509230 1498586 1488585 
3791.723 1479356 1470936 1463529 1457426 1453021 1450568 1450042 1451368 
3795.580 1454039 1457599 1461401 1464759 1466862 1466921 1464353 1459256 
3799.438 1452456 1445604 1440847 1440293 1445291 1455983 1471127 1488437 
3803.295 1505335 1519554 1529719 1535563 1537589 1536830 1534237 1530345 
3807.152 1525498 1519732 1513278 1506619 1500544 1496085 1494083 1495151 
3811.010 1499418 1506438 1515397 1525099 1534217 1541386 1545407 1545463 
3814.867 1541256 1533311 1522710 1511163 1500240 1491317 1484843 1480461 
3818.725 1477227 1474005 1469812 1464442 1458434 1452896 1449120 1448204 
3822.582 1450456 1455559 1462541 1470165 1477407 1483603 1488688 1493147 
3826.439 1497697 1503132 1509886 1517986 1526907 1535728 1543118 1547807 
3830.297 1548822 1545776 1539103 1530085 1520642 1512901 1508721 1509154 
3834.154 1514151 1522637 1532625 1542001 1548904 1552345 1552360 1549911 
3838.012 1546474 1543511 1541792 1541588 1542346 1543182 1543106 1541630 
3841.869 1538650 1534526 1529900 1525389 1521519 1518420 1516168 1514635 
3845.727 1513758 1513626 1514343 1516128 1519045 1522967 1527365 1531353 
3849.584 1533759 1533295 1528813 1519721 1506288 1489775 1472345 1456716 
3853.441 1445462 1440363 1441857 1448981 1459612 1471341 1481824 1489757 
3857.299 1494753 1497274 1498119 1497816 1496558 1493997 1489732 1483685 
3861.156 1476398 1469277 1464065 1462479 1465566 1473588 1485744 1500643 
3865.014 1516672 1532434 1546883 1559385 1569601 1577208 1581803 1583009 
3868.871 1580567 1574527 1565405 1554055 1541577 1529175 1517754 1508092 
3872.729 1500512 1495080 1491498 1489327 1487958 1486848 1485737 1484743 
3876.586 1484332 1485294 1488550 1494426 1502871 1513055 1523580 1533031 
3880.443 1540202 1544624 1546399 1546202 1544862 1542989 1540675 1537607 
3884.301 1533149 1526793 1518319 1508193 1497416 1487377 1479571 1475402 
3888.158 1475689 1480694 1489756 1501421 1513584 1523786 1529712 1529719 
3892.016 1523299 1511073 1494721 1476518 1458885 1443917 1433021 1427159 
3895.873 1426685 1431847 1442337 1457545 1476274 1496601 1516165 1532648 
3899.730 1544337 1550735 1552466 1551197 1548727 1546348 1544086 1540962 
3903.588 1535358 1525863 1512189 1495524 1478439 1464106 1455344 1453735 
3907.445 1459281 1470601 1485570 1501954 1518186 1533327 1547073 1559320 
3911.303 1569831 1578161 1583785 1586388 1585982 1582892 1577485 1569864 
3915.160 1559702 1546566 1530103 1510901 1490767 1472685 1459983 1455645 
3919.018 1460958 1474904 1494265 1514158 1529693 1537078 1534881 1524304 
3922.875 1508729 1492772 1480733 1475721 1478683 1488520 1502389 1516642 
3926.732 1527710 1532663 1530068 1519803 1503299 1482879 1461537 1442163 
3930.590 1427329 1418744 1417145 1422284 1433009 1447548 1463655 1479085 
3934.447 1491613 1499595 1502094 1499160 1491884 1482277 1472735 1465599 
3938.305 1462423 1463523 1468086 1474572 1481112 1486653 1490971 1494961 
3942.162 1500098 1507701 1517981 1530189 1542282 1551887 1556957 1556553 
3946.020 1551215 1542684 1533412 1525814 1521447 1520973 1523878 1528962 
3949.877 1534694 1539609 1542491 1542640 1539948 1534719 1528088 1521509 
3953.734 1516725 1515284 1518139 1525398 1536056 1548490 1560571 1570551 
3957.592 1577148 1579881 1578882 1574679 1568013 1559572 1550122 1540566 
3961.449 1532079 1525829 1522836 1523551 1527618 1533912 1540752 1546559 
3965.307 1550366 1552039 1552268 1552112 1552632 1554213 1556591 1558797 
3969.164 1559796 1558805 1555729 1551072 1545924 1541372 1538226 1536766 
3973.021 1536687 1537418 1538242 1538722 1538669 1538271 1538006 1538445 
3976.879 1540107 1543312 1548100 1554232 1561178 1568245 1574782 1580349 
3980.736 1584840 1588453 1591601 1594577 1597433 1599771 1600871 1600039 
3984.594 1596808 1591365 1584414 1577249 1571136 1567034 1565183 1565186 
3988.451 1566228 1567551 1568688 1569945 1571989 1575942 1582470 1591778 
3992.309 1603424 1616289 1629158 1640948 1651033 1659356 1666278 1672454 
3996.166 1678458 1684691 1691299 1698110 1705017 1711550 1717283 1721773 
4000.023 1724443 1724932 
##END=
