##TITLE=Tecor_ABS_White_Filament_r3_ATR-Corrected
##JCAMP-DX=5.01  $$ Nicolet v. 1
##DATATYPE=INFRARED SPECTRUM
##ORIGIN=Curtin University
##OWNER=Nicolet
##LONGDATE=2024/07/19
##TIME=16:26:43
##SPECTROMETER/DATA SYSTEM=Nicolet iS50
##DATA PROCESSING=
Ratio against background
%Transmittance->Absorbance
ATR Correction
Truncated
ElementMultiply or ElementDivide
##COMMENTS=
Number of sample scans: 32
Collection length: 47.28 sec
Sample gain: 1.0
Background collected on: Fri Jul 19 16:25:17 2024 (GMT+08:00);
Number of background scans: 32
Background gain: 1.0
Sample spacing:  1.000
Number of scan points: 16672
Resolution points: 8192
Number of FFT points: 65536
Apodization: N-B strong;
Phase correction: Mertz;
Laser frequency: 15798.3 cm-1
Number of rejected sample scans: 0
Number of rejected background scans: 0
Bench serial number: AUP1200105;
##RESOLUTION=4.000
##XUNITS=1/CM
##YUNITS=ABSORBANCE
##FIRSTX=400.163452
##LASTX=4000.187744
##FIRSTY=0.008336
##MAXX=4000.187744
##MINX=400.163452
##MAXY=0.464666
##MINY=-0.019343
##XFACTOR=1.000000
##YFACTOR=1.000000E-009
##NPOINTS=7468
##DELTAX=0.482125
##ZPD=8192
##XYDATA=(X++(Y..Y))
400.163 8335812 9262634 10191225 11013653 11626237 11937353 11888590 
403.538 11470409 10732302 9776571 8743220 7782139 7023520 6552631 6397742 
407.395 6529653 6877759 7350276 7861101 8348479 8786126 9179669 9554855 
411.252 9936107 10329650 10712752 11035532 11234735 11255827 11072074 
414.627 10700197 10197382 9648148 9139066 8737397 8474400 8343459 8310056 
418.484 8330790 8372089 8423387 8498002 8623763 8826789 9117598 9482788 
422.341 9887475 10284984 10630330 10890437 11049990 11108266 11074058 
425.716 10958198 10771454 10525797 10238884 9937112 9655244 9431059 9296617 
429.573 9268851 9344857 9502231 9706267 9918774 10108563 10254994 10353730 
433.430 10409741 10434465 10441222 10443385 10451960 10474764 10514315 
436.804 10566405 10617947 10650042 10641562 10577199 10453418 10283443 
440.179 10095037 9925470 9810687 9776314 9831078 9965306 10154367 10365926 
444.036 10566800 10728282 10828735 10856736 10810727 10702043 10554079 
447.411 10401537 10283764 10235976 10278351 10408283 10599541 10808267 
450.786 10986697 11098343 11129971 11095864 11032538 10986261 10996995 
454.161 11085902 11249027 11460772 11683390 11879943 12025163 12111975 
457.535 12151149 12165771 12182034 12220375 12288625 12380292 12476537 
460.910 12553073 12587848 12568527 12496265 12386261 12260837 12144033 
464.285 12051567 11987097 11941663 11899759 11846636 11776649 11697109 
467.660 11627040 11590825 11609995 11695051 11842390 12034467 12245475 
471.035 12446590 12612171 12722576 12766907 12743450 12661517 12541451 
474.409 12414038 12315280 12279669 12328605 12463516 12661328 12880215 
477.784 13070402 13190521 13219943 13164908 13054851 12931138 12832616 
481.159 12784549 12793068 12849524 12937794 13042793 13154982 13268920 
484.534 13378366 13471071 13527322 13525132 13448702 13298159 13093789 
487.909 12873597 12682746 12559853 12524543 12571364 12673225 12791220 
491.284 12888414 12941915 12948453 12923753 12894480 12888602 12924857 
494.658 13008414 13129171 13266725 13396694 13498840 13562397 13589245 
498.033 13591976 13589920 13601826 13640118 13706213 13790745 13876588 
501.408 13945714 13985839 13994996 13982637 13966352 13966491 13999859 
504.783 14076228 14197231 14358588 14552546 14769740 15000518 15233852 
508.158 15456765 15655568 15818803 15941311 16028116 16095083 16166337 
511.532 16269054 16426757 16654043 16954936 17324276 17751514 18223572 
514.907 18727188 19248274 19770882 20277200 20751346 21184504 21582460 
518.282 21968672 22382932 22872200 23477306 24218282 25085262 26037386 
521.657 27012884 27944572 28780438 29497520 30108830 30657772 31205212 
525.032 31810012 32512076 33321302 34216040 35150060 36066960 36915408 
528.406 37662156 38298860 38841172 39321768 39779568 40248480 40750092 
531.781 41289872 41860836 42448944 43041368 43631320 44220064 44814892 
535.156 45423260 46047388 46680852 47307656 47906608 48456016 48940584 
538.531 49354328 49702152 49996300 50252900 50486264 50705836 50914732 
541.906 51110684 51288100 51441112 51565144 51658704 51722240 51757696 
545.281 51765932 51746236 51696036 51612176 51493080 51341032 51163376 
548.655 50971460 50777508 50590096 50409624 50226528 50022844 49777516 
552.030 49474184 49107988 48688700 48239788 47791092 47370268 46994092 
555.405 46664212 46368672 46087484 45801476 45500120 45184396 44866268 
558.780 44562420 44287812 44049132 43842156 43652208 43458080 43237264 
562.155 42971124 42648276 42266732 41834000 41365228 40880500 40400968 
565.529 39944788 39523200 39137984 38781724 38439816 38095336 37733808 
568.904 37347864 36938488 36514380 36087876 35671236 35272064 34891444 
572.279 34523848 34158668 33783140 33385434 32957338 32495946 32005026 
575.654 31494502 30978680 30474254 29995540 29551658 29143728 28764524 
579.029 28400788 28037442 27662370 27269888 26862710 26449840 26043524 
582.404 25655374 25292554 24957370 24647038 24356052 24077832 23806830 
585.778 23538618 23270704 23002300 22733774 22467318 22206870 21956660 
589.153 21720784 21501724 21299788 21113512 20941016 20782366 20640128 
592.528 20519544 20426460 20364124 20330534 20316490 20306826 20283290 
595.903 20228994 20132654 19991272 19810802 19604244 19388830 19182630 
599.278 19001058 18854992 18748944 18680724 18641690 18618464 18595378 
602.652 18557980 18496638 18409508 18302922 18190614 18089442 18015596 
606.027 17980034 17986248 18029484 18098682 18179398 18256976 18319506 
609.402 18359116 18373202 18364188 18338264 18304036 18270064 18243218 
612.777 18226490 18218912 18217166 18218730 18224898 18243820 18289812 
616.152 18380354 18530362 18745842 19019052 19328432 19641530 19922046 
619.527 20138142 20268518 20305586 20254014 20126450 19938098 19702178 
622.901 19427974 19122280 18791618 18444738 18093954 17754092 17440204 
626.276 17164468 16933878 16749250 16605506 16493630 16402965 16323373 
629.651 16247196 16170846 16094455 16022148 15959986 15913596 15885934 
633.026 15875196 15874812 15874410 15862856 15831457 15776495 15700644 
636.401 15612060 15521997 15442224 15382516 15349789 15347620 15377516 
639.775 15438006 15525476 15632752 15748996 15860436 15952503 16013594 
643.150 16037907 16028069 15994580 15953386 15922040 15914828 15940309 
646.525 16000142 16090702 16205309 16337005 16480127 16630448 16784656 
649.900 16939172 17089460 17231170 17360756 17477748 17585848 17693410 
653.275 17812482 17956990 18139650 18369418 18648696 18972062 19326884 
656.650 19695648 20059976 20405982 20728084 21031774 21332130 21649522 
660.024 22003402 22405684 22856568 23344482 23850038 24352672 24837554 
663.399 25300334 25747610 26193850 26655294 27144260 27665428 28215646 
666.774 28786168 29367652 29952904 30539466 31128584 31723044 32324742 
670.149 32933562 33547144 34162480 34777740 35393672 36013772 36643416 
673.524 37289184 37957668 38654776 39385084 40151268 40953532 41788556 
676.898 42650088 43530296 44423216 45327684 46250984 47208816 48223748 
680.273 49319928 50517960 51830228 53260416 54805896 56463232 58234752 
683.648 60132776 62180668 64411416 66863528 69578456 72599152 75973736 
687.023 79759944 84031960 88886088 94444960 100860632 108316440 117028616 
690.398 127246528 139250896 153344384 169833680 188998432 211046688 
693.290 236054832 263895504 294155200 326053376 358383136 389511392 
696.183 417487008 440298144 456256768 464391072 464666144 457919360 
699.076 445554816 429166272 410235648 389969920 369254304 348677536 
701.969 328589504 309166112 290470688 272504800 255245744 238670880 
704.861 222767552 207532864 192968704 179074592 165843312 153260704 
707.754 141309488 129974680 119248648 109134096 99643232 90793480 82603456 
711.129 75085176 68240800 62060072 56521568 51594600 47243176 43429656 
714.504 40116960 37269732 34854288 32836732 31181514 29849202 28795994 
717.878 27973728 27332776 26825202 26409828 26055876 25745742 25474496 
721.253 25246798 25071794 24957236 24905064 24909538 24958594 25037860 
724.628 25135314 25245372 25370774 25521168 25710130 25951040 26253350 
728.003 26621336 27054012 27547808 28098882 28706386 29373352 30107916 
731.378 30922588 31833176 32857094 34010772 35306880 36751112 38339144 
734.752 40055256 41872640 43756512 45668500 47572568 49439884 51252032 
738.127 53001156 54688664 56322184 57913016 59474380 61021632 62573200 
741.502 64152376 65786912 67507776 69345696 71326632 73467672 75774256 
744.877 78239480 80846536 83572760 86394216 89290728 92249336 95265416 
748.252 98342832 101491600 104725656 108059456 111505768 115072648 118761208 
751.627 122563552 126460848 130422384 134405520 138357120 142216240 
754.519 145917424 149395280 152587360 155437072 157894528 159918176 
757.412 161474864 162540288 163100112 163150128 162695456 161748832 
760.305 160329264 158459552 156165312 153475424 150423152 147047824 
763.197 143395936 139520256 135477968 131326152 127117872 122898648 
766.090 118704456 114562104 110490688 106504584 102615176 98831232 95158712 
769.465 91599416 88150584 84806528 81561040 78411712 75362136 72422352 
772.840 69606192 66925316 64384004 61974848 59678440 57467596 55314316 
776.214 53197160 51106396 49046008 47030456 45079728 43213072 41445004 
779.589 39783368 38230544 36784940 35443460 34201952 33054970 31995132 
782.964 31012324 30094578 29229506 28405982 27615950 26854390 26118732 
786.339 25408054 24722662 24064102 23436006 22844254 22295848 21797110 
789.714 21350610 20952782 20593412 20257516 19929604 19598426 19260032 
793.089 18919320 18587144 18276414 17997524 17754462 17544858 17361172 
796.463 17194636 17037380 16884854 16735096 16587412 16440552 16292464 
799.838 16140480 15983155 15821710 15660452 15505904 15365098 15242544 
803.213 15140559 15057937 14991693 14938206 14894539 14857611 14824006 
806.588 14788544 14744272 14684296 14603903 14503659 14390919 14278859 
809.963 14182929 14116310 14085050 14085505 14105018 14125806 14130740 
813.337 14108383 14056887 13983296 13901095 13823949 13761867 13717817 
816.712 13687700 13662936 13635129 13599309 13556541 13513099 13477695 
820.087 13458166 13457213 13470771 13488462 13496151 13479700 13428789 
823.462 13340291 13219242 13078199 12935031 12808813 12716112 12667649 
826.837 12666045 12705691 12774394 12856831 12938176 13007968 13062366 
830.212 13104443 13142311 13186671 13247401 13332001 13444678 13587688 
833.586 13762549 13972061 14220051 14510658 14845481 15222591 15634587 
836.961 16069554 16512858 16949620 17367322 17756834 18112854 18432954 
840.336 18716654 18965424 19182448 19373028 19544268 19703888 19857838 
843.711 20007046 20146386 20264534 20346212 20376656 20345926 20252106 
847.086 20101898 19908646 19687976 19454170 19216788 18979880 18743246 
850.460 18504452 18261012 18011290 17753734 17486148 17204516 16904134 
853.835 16580794 16234308 15870878 15503949 15153163 14840375 14584651 
857.210 14397603 14279705 14220133 14199247 14193469 14180752 14145460 
860.585 14081222 13990857 13884135 13773946 13671873 13585631 13517578 
863.960 13465446 13424633 13390627 13360534 13334087 13312246 13296386 
867.335 13286273 13280405 13276248 13272082 13268797 13270098 13281994 
870.709 13310655 13359561 13427817 13509656 13595459 13674977 13739911 
874.084 13786503 13815774 13832019 13840934 13846691 13850518 13850871 
877.459 13845038 13831590 13812385 13793970 13786312 13801428 13849423 
880.834 13935607 14057579 14204726 14359602 14501086 14609349 14670861 
884.209 14681848 14650232 14593993 14537297 14504564 14514685 14576971 
887.583 14689306 14840555 15014052 15193131 15365567 15526132 15677018 
890.958 15826089 15983948 16161101 16366145 16604258 16878372 17189146 
894.333 17536590 17921268 18344686 18810200 19323106 19889646 20517114 
897.708 21212834 21983470 22835738 23776708 24815748 25965044 27239878 
901.083 28656906 30231514 31973228 33883168 35951512 38158876 40478296 
904.458 42879300 45331232 47804116 50267836 52689180 55029004 57240260 
907.832 59269964 61063304 62568992 63746372 64568816 65025568 65120092 
911.207 64866208 64284416 63398860 62235492 60821904 59188348 57368448 
914.582 55398904 53319076 51168440 48984504 46800872 44646248 42543920 
917.957 40513064 38569436 36726984 34997340 33389450 31908516 30554698 
921.332 29322366 28200644 27175892 26233792 25362676 24554792 23807126 
924.706 23120208 22495498 21933580 21432828 20988892 20596662 20251438 
928.081 19950776 19695132 19486908 19329330 19224160 19170594 19164738 
931.456 19200196 19268618 19361350 19469848 19586034 19702746 19813418 
934.831 19912446 19995602 20060340 20106202 20135438 20153008 20167522 
938.206 20190404 20235588 20317574 20448156 20633350 20870284 21146690 
941.581 21442186 21734020 22003266 22240412 22449278 22645380 22851422 
944.955 23089486 23374456 23709830 24088280 24496632 24922306 25359442 
948.330 25811470 26290308 26812144 27392192 28040952 28763604 29562200 
951.705 30439686 31403546 32467638 33651460 34977144 36466692 38138964 
955.080 40009288 42090348 44393612 46930532 49711876 52746484 56037908 
958.455 59581340 63361020 67348376 71500944 75762760 80065184 84329048 
961.829 88468632 92395768 96025624 99281328 102098016 104425016 106225872 
965.204 107477704 108170144 108304352 107893248 106961760 105547472 
968.097 103699928 101478312 98947720 96174672 93221880 90144680 86988688 
971.472 83790416 80578872 77378880 74213656 71107632 68086552 65177872 
974.847 62408104 59800772 57374116 55139048 53099336 51251608 49587436 
978.221 48095128 46761588 45573668 44517796 43580180 42746036 41999728 
981.596 41325924 40710940 40144612 39621036 39139480 38702736 38316028 
984.971 37985492 37717028 37515764 37385684 37328920 37345344 37430892 
988.346 37577424 37772280 38000320 38245156 38491988 38728496 38944392 
991.721 39129908 39273740 39361968 39378456 39308344 39141484 38877280 
995.095 38525552 38106592 37647572 37177972 36725852 36315184 35965280 
998.470 35691408 35504916 35412596 35414256 35499816 35647496 35825036 
1001.845 35992988 36112020 36150472 36090020 35928948 35680512 35368592 
1005.220 35021204 34664456 34318088 33994324 33698208 33430480 33190348 
1008.595 32977824 32795396 32647430 32539408 32475826 32457776 32482058 
1011.970 32540652 32622594 32717012 32816586 32920480 33035350 33173616 
1015.344 33349984 33576100 33857060 34190036 34565564 34971732 35399628 
1018.719 35846928 36319476 36829704 37393352 38025736 38738964 39541716 
1022.094 40440664 41442012 42552100 43776520 45115732 46560780 48089180 
1025.469 49662204 51226496 52717176 54063696 55195756 56049060 56569536 
1028.844 56717188 56468304 55817140 54777328 53381204 51678088 49730612 
1032.219 47609756 45388644 43137964 40920652 38789424 36785156 34936056 
1035.595 33258210 31757008 30429456 29266990 28259216 27396450 26671368 
1038.970 26078684 25613266 25267350 25029068 24881280 24803314 24773884 
1042.345 24774432 24791406 24817182 24848672 24885296 24926190 24969338 
1045.720 25011938 25051712 25089350 25129508 25180188 25250910 25349580 
1049.096 25480098 25639932 25821344 26012888 26203048 26383176 26549996 
1052.471 26706214 26859620 27020710 27200102 27405494 27640364 27903116 
1055.846 28188882 28490148 28800362 29114886 29432674 29755858 30088922 
1059.221 30437540 30806756 31200966 31623680 32078576 32569628 33101082 
1062.597 33676144 34295040 34953092 35639740 36339104 37032264 37700264 
1065.972 38327640 38903716 39423156 39883680 40283740 40619432 40883760 
1069.347 41067184 41159980 41155552 41052892 40857480 40581020 40238408 
1072.722 39845568 39415912 38959756 38483200 37990272 37483512 36966112 
1076.098 36441164 35912040 35381232 34848680 34312276 33767812 33210888 
1079.473 32638512 32050780 31451356 30846930 30245946 29656022 29082360 
1082.848 28527696 27993098 27478876 26986868 26521640 26089086 25695490 
1086.223 25344382 25035138 24761556 24513738 24280410 24052114 23823616 
1089.599 23594338 23367290 23146370 22934468 22731808 22536528 22347002 
1092.974 22163488 21989446 21830646 21692938 21578646 21483830 21398630 
1096.349 21308916 21200674 21065298 20901830 20718542 20529128 20349466 
1099.724 20191754 20061400 19957094 19872074 19797828 19727862 19658722 
1103.100 19590508 19524646 19461700 19399426 19333628 19259432 19174424 
1106.475 19080426 18984254 18896682 18829510 18791798 18787476 18814106 
1109.850 18863658 18924614 18984666 19033198 19062720 19069148 19050834 
1113.225 19008332 18943146 18857026 18752300 18631684 18498154 18355104 
1116.601 18204978 18049810 17890444 17726614 17557042 17379740 17192820 
1119.976 16994316 16783270 16560074 16327143 16089475 15854632 15631963 
1123.351 15431216 15260575 15124469 15022522 14948763 14893789 14845696 
1126.726 14793983 14731254 14654582 14565570 14469214 14372403 14282270 
1130.102 14204525 14143959 14103394 14084443 14086546 14107644 14144095 
1133.477 14190198 14240510 14290754 14338600 14385166 14433515 14488068 
1136.852 14551862 14626192 14709286 14798482 14891537 14988804 15093911 
1140.227 15213149 15353204 15518848 15710527 15924510 16154317 16393894 
1143.603 16640671 16897018 17171092 17474222 17818018 18212310 18663302 
1146.978 19174854 19750512 20395360 21118250 21929994 22841162 23858186 
1150.353 24978576 26188668 27462664 28764326 30050288 31274382 32391936 
1153.728 33363658 34158628 34755860 35145128 35327308 35312904 35120404 
1157.104 34773652 34299204 33724244 33074826 32375108 31647254 30911814 
1160.479 30188138 29494162 28845496 28254142 27728070 27269176 26873788 
1163.854 26533988 26239038 25978270 25743502 25530508 25340010 25175752 
1167.229 25043106 24946182 24885866 24858236 24856486 24872312 24899138 
1170.604 24934122 24979116 25040528 25126718 25244946 25400414 25594516 
1173.980 25826524 26095670 26402996 26753096 27153494 27612724 28137438 
1177.355 28729110 29382136 30082986 30810840 31538960 32237560 32875966 
1180.730 33424988 33859308 34159840 34315800 34325900 34197792 33947512 
1184.105 33596160 33167486 32684218 32166078 31629126 31085582 30545154 
1187.481 30016920 29509488 29032192 28593964 28203176 27865720 27584496 
1190.856 27358654 27184270 27054656 26962508 26901264 26866828 26858852 
1194.231 26879706 26933500 27022874 27146430 27296916 27460680 27620760 
1197.606 27759448 27863630 27927388 27953416 27950860 27932308 27908780 
1200.982 27886916 27867202 27845322 27814846 27770346 27709534 27634168 
1204.357 27548896 27459406 27370152 27283398 27199116 27115820 27031248 
1207.732 26943378 26850604 26751056 26642474 26522568 26388924 26240706 
1211.107 26078152 25903666 25720626 25532650 25342402 25151348 24959708 
1214.483 24767396 24574872 24383660 24196622 24017054 23847736 23689768 
1217.858 23542902 23404816 23272988 23144844 23019872 22899640 22787534 
1221.233 22688616 22608270 22551018 22519460 22513334 22530120 22564468 
1224.608 22609978 22660600 22711766 22761190 22809504 22859586 22915398 
1227.984 22980472 23057024 23145668 23245710 23355076 23471446 23592514 
1231.359 23715362 23836662 23951960 24056680 24146706 24220128 24278200 
1234.734 24325828 24370274 24419456 24479186 24550664 24630268 24709422 
1238.109 24777250 24823514 24841350 24828430 24786804 24722420 24641846 
1241.485 24551748 24457454 24363054 24272432 24189550 24118290 24061334 
1244.860 24019080 23988614 23962692 23932728 23889872 23828152 23746694 
1248.235 23649836 23546786 23447688 23361758 23294666 23247336 23217226 
1251.610 23199772 23190224 23185384 23183864 23184850 23187700 23190676 
1254.986 23190734 23184276 23169170 23144530 23112746 23078062 23046126 
1258.361 23021954 23008500 23006478 23014022 23027926 23044316 23060104 
1261.736 23073234 23082704 23088378 23090520 23088980 23083200 23072642 
1265.111 23056738 23035570 23010098 22982060 22954172 22928972 22908304 
1268.487 22893354 22883954 22879144 22878274 22881344 22889896 22906436 
1271.862 22933702 22973424 23026140 23090150 23162836 23241702 23326264 
1275.237 23418606 23522318 23641912 23779542 23933420 24097264 24261490 
1278.612 24415562 24551440 24666478 24763922 24851908 24941340 25041510 
1281.988 25158152 25291352 25437044 25588120 25737866 25882232 26020660 
1285.363 26156452 26295178 26442478 26602430 26776098 26961262 27153108 
1288.738 27345642 27533666 27714424 27887946 28057856 28229556 28408448 
1292.113 28598550 28799844 29009016 29219800 29424668 29617308 29793724 
1295.489 29953960 30101304 30241088 30379446 30521960 30672556 30833332 
1298.864 31004758 31185628 31373780 31566992 31762772 31959842 32157794 
1302.239 32357994 32562524 32773614 32992248 33217896 33447724 33678068 
1305.614 33905308 34126988 34342568 34552652 34757984 34957852 35149752 
1308.990 35329748 35493940 35640720 35771268 35890356 36004272 36117996 
1312.365 36233952 36349984 36460648 36559100 36639376 36698764 36737688 
1315.740 36759284 36767688 36765896 36755948 36738952 36716172 36690144 
1319.115 36664324 36642528 36626824 36617536 36611588 36605108 36594748 
1322.490 36579752 36562904 36549692 36547156 36560696 36593232 36644416 
1325.866 36711164 36790048 36878076 36973488 37075816 37184364 37297048 
1329.241 37410152 37518400 37616152 37698496 37762148 37805924 37830264 
1332.616 37835612 37822800 37792380 37745040 37682280 37607764 37527344 
1335.991 37449616 37384492 37343128 37335476 37369020 37447516 37569696 
1339.367 37730524 37920712 38130544 38350820 38575692 38803108 39034664 
1342.742 39273364 39521308 39777708 40037576 40292620 40533224 40750848 
1346.117 40940888 41103000 41241800 41364424 41478692 41590852 41705016 
1349.492 41821476 41938412 42052308 42159420 42256700 42341820 42414228 
1352.868 42474308 42523380 42562588 42594248 42620128 42641908 42662200 
1356.243 42682928 42706220 42732952 42762788 42793216 42820172 42838656 
1359.618 42844260 42835128 42812700 42781520 42748184 42719264 42698584 
1362.993 42685980 42676944 42664348 42639644 42596536 42530900 42442604 
1366.369 42334216 42210412 42076232 41936628 41795792 41656876 41521300 
1369.744 41388100 41253304 41110472 40951412 40768044 40554088 40306768 
1373.119 40027028 39718476 39385168 39029740 38651244 38246048 37809140 
1376.494 37336388 36825680 36279908 35704904 35108564 34498904 33882732 
1379.870 33264324 32646566 32031782 31422716 30823778 30239774 29676214 
1383.245 29137720 28627090 28144712 27688526 27254706 26837944 26433184 
1386.620 26036918 25647882 25268372 24903222 24558312 24239140 23947894 
1389.995 23682070 23435290 23198638 22964078 22727480 22490376 22259192 
1393.371 22043450 21851624 21688212 21551880 21436612 21334214 21237318 
1396.746 21142670 21050890 20965814 20891436 20829958 20780528 20739896 
1400.121 20703360 20667714 20631892 20597004 20565312 20537586 20513298 
1403.496 20489376 20462160 20428812 20388702 20344810 20301944 20266420 
1406.872 20243588 20237028 20248300 20277374 20324270 20390314 20478282 
1410.247 20593184 20740956 20928002 21160682 21443850 21781592 22176046 
1413.622 22626994 23131154 23681012 24263860 24861412 25450884 26006832 
1416.997 26504178 26921332 27243366 27464880 27590190 27633110 27614792 
1420.373 27560042 27496106 27448562 27441818 27497784 27635314 27870828 
1423.748 28217216 28684118 29277274 30000530 30856304 31846866 32974380 
1427.123 34240324 35643520 37179640 38840564 40615012 42491568 44458704 
1430.498 46507336 48629340 50816488 53059216 55346292 57665656 60007136 
1433.874 62364024 64734876 67121616 69527872 71956280 74407664 76881736 
1437.249 79380472 81911024 84487920 87132592 89870272 92725856 95721232 
1440.624 98873424 102196208 105702192 109405584 113321928 117465792 
1443.517 121846288 126462384 131300960 136338704 141547456 146903312 
1446.410 152394992 158031536 163844032 169880480 176190896 182801824 
1449.303 189682112 196705456 203615584 210011520 215359328 219044944 
1452.196 220461520 219116288 214729376 207293152 197077216 184584064 
1455.089 170472512 155469440 140288016 125558424 111777640 99283064 88249904 
1458.465 78710904 70591592 63750052 58013096 53204560 49162860 45749132 
1461.840 42849236 40371964 38243928 36405428 34805876 33400842 32151312 
1465.215 31024742 29995866 29048538 28174492 27372332 26643476 25989572 
1468.590 25409382 24897930 24447468 24049076 23693956 23375508 23088604 
1471.966 22830758 22600546 22398366 22225582 22084426 21977380 21905678 
1475.341 21868934 21864798 21890164 21943136 22025064 22141306 22301604 
1478.716 22518060 22802862 23167150 23620896 24174460 24841002 25637574 
1482.091 26586636 27713358 29044380 30604970 32418560 34507800 36898836 
1485.467 39626944 42743216 46322092 50468584 55321920 61053708 67854880 
1488.842 75908032 85342760 96176976 108254872 121193968 134362688 146904608 
1492.217 157819792 166100192 170893808 171661728 168283152 161076384 
1495.110 150731216 138174160 124407176 110362040 96797880 84253392 73046976 
1498.485 63308940 55029084 48105256 42384388 37693036 33859020 30724206 
1501.861 28152462 26032478 24276718 22817810 21603154 20589904 19740980 
1505.236 19023238 18407476 17869496 17390322 16956444 16558392 16189115 
1508.611 15843062 15516272 15206739 14914919 14643616 14397126 14179585 
1511.986 13992528 13835041 13703077 13591483 13494531 13408488 13331261 
1515.362 13261674 13198919 13141199 13085293 13027097 12962765 12889471 
1518.737 12807054 12717874 12626283 12537931 12458520 12392008 12339995 
1522.112 12301054 12271646 12246538 12221207 12193235 12162725 12132964 
1525.487 12108848 12095682 12096466 12111829 12138743 12172688 12208452 
1528.863 12242489 12274224 12305303 12339504 12380336 12429930 12488863 
1532.238 12555237 12626674 12700490 12775498 12852683 12934795 13025678 
1535.613 13129444 13248084 13381568 13525967 13674434 13817927 13947010 
1538.988 14054587 14137601 14198001 14242069 14278393 14314844 14356221 
1542.364 14403420 14453313 14501461 14544304 14580376 14611975 14642907 
1545.739 14677312 14716820 14759387 14799672 14829186 14840884 14828983 
1549.114 14791730 14731046 14651642 14559333 14460100 14358667 14259391 
1552.489 14165947 14082232 14011454 13957085 13920721 13902214 13898687 
1555.865 13905312 13915569 13921775 13916763 13894149 13849438 13781246 
1559.240 13690978 13583268 13464961 13343750 13227602 13122112 13031447 
1562.615 12957360 12899599 12857329 12828918 12812854 12808136 12814144 
1565.990 12830355 12856996 12894394 12943297 13005205 13081191 13172705 
1569.365 13280452 13404408 13543691 13697205 13863862 14043523 14237005 
1572.741 14446569 14675016 14926214 15204372 15514614 15862944 16258433 
1576.116 16713616 17246294 17878334 18635818 19544026 20623358 21882710 
1579.491 23313590 24884216 26537850 28194212 29756336 31120698 32190106 
1582.866 32886430 33160980 33001538 32434280 31520362 30347998 29020784 
1586.242 27644678 26316232 25113630 24091502 23281322 22693414 22322454 
1589.617 22153260 22166348 22342006 22663136 23116750 23695324 24396486 
1592.992 25224824 26190822 27311882 28611678 30118464 31863436 33877408 
1596.367 36186052 38803748 41726804 44925076 48334440 51853248 55343296 
1599.743 58637240 61553212 63915008 65572260 66419640 66407568 65546476 
1603.118 63901620 61583120 58731072 55500580 52048052 48518760 45038868 
1606.493 41709748 38605036 35770828 33227954 30976462 29000526 27275442 
1609.868 25774118 24470822 23344170 22376246 21551720 20855464 20270922 
1613.244 19780208 19365448 19009932 18700704 18428732 18189224 17979928 
1616.619 17799904 17647616 17520328 17414476 17325504 17249902 17184708 
1619.994 17127508 17076272 17027540 16977072 16918982 16847646 16758649 
1623.369 16651109 16527982 16396431 16265873 16145950 16043993 15963485 
1626.745 15904102 15862333 15833775 15814800 15804196 15803188 15814548 
1630.120 15842039 15889430 15960511 16059449 16191594 16363360 16581841 
1633.495 16852110 17174990 17545552 17951906 18376518 18799506 19201658 
1636.870 19567352 19885130 20147066 20346682 20476832 20528918 20494246 
1640.246 20366608 20145184 19836692 19455876 19023464 18563014 18097686 
1643.621 17647016 17225164 16840752 16497042 16193170 15926391 15692180 
1646.996 15486010 15303203 15139461 14991446 14856203 14732340 14619306 
1650.371 14518331 14431374 14360395 14306577 14268198 14240297 14214950 
1653.747 14183159 14137431 14074121 13995402 13908978 13826263 13759620 
1657.122 13718463 13707173 13724149 13762870 13814328 13870358 13925862 
1660.497 13980166 14035735 14096672 14166800 14247252 14336525 14430581 
1663.872 14524699 14614098 14695391 14767615 14831380 14888872 14942845 
1667.248 14995274 15046998 15095591 15136367 15162369 15165846 15140674 
1670.623 15084175 14998820 14891768 14773250 14654739 14546076 14453708 
1673.998 14380592 14326109 14287897 14262346 14245839 14233850 14220721 
1677.373 14200442 14166429 14114426 14043002 13955775 13860509 13767582 
1680.749 13686642 13624675 13583736 13561170 13551199 13547583 13545098 
1684.124 13540907 13533639 13523236 13507877 13485110 13451801 13405602 
1687.499 13346971 13279707 13210358 13147585 13098456 13067483 13054446 
1690.874 13054977 13061724 13066245 13061523 13042808 13009517 12963926 
1694.250 12911800 12861131 12820438 12798015 12800510 12830746 12886807 
1697.625 12962650 13048277 13131783 13200614 13245464 13261321 13248733 
1701.000 13214448 13168839 13123261 13087362 13066489 13061685 13069347 
1704.375 13083621 13098765 13110924 13119174 13125876 13135282 13152005 
1707.750 13178988 13217106 13264407 13316981 13370225 13419745 13462313 
1711.126 13496648 13523551 13546424 13570867 13604803 13657437 13738098 
1714.501 13854169 14010040 14205072 14433707 14686434 14951744 15218685 
1717.876 15480231 15733810 15982259 16231682 16490238 16764818 17059714 
1721.251 17375428 17709032 18054534 18405358 18754776 19099040 19435442 
1724.627 19764134 20085870 20400450 20706278 20999864 21275000 21527176 
1728.002 21753402 21954870 22137674 22311474 22487940 22676716 22883194 
1731.377 23105866 23335712 23558752 23756796 23912962 24014086 24052858 
1734.752 24029634 23951796 23830588 23678342 23506096 23320674 23123972 
1738.128 22913978 22685222 22431544 22148424 21834460 21491796 21127444 
1741.503 20750082 20369562 19995304 19634898 19292600 18970944 18669268 
1744.878 18385792 18117076 17861276 17616434 17382968 17162532 16958084 
1748.253 16771700 16604092 16453721 16316444 16186403 16058147 15927825 
1751.629 15795441 15663480 15536624 15418668 15311988 15215402 15125590 
1755.004 15038054 14949349 14857818 14764820 14672437 14583219 14497758 
1758.379 14415107 14333133 14248625 14159566 14064824 13964457 13859172 
1761.754 13750278 13639734 13529859 13424396 13327450 13242359 13169839 
1765.130 13107160 13048319 12986593 12916381 12837566 12756213 12683457 
1768.505 12631518 12608745 12615758 12643218 12673558 12685480 12659637 
1771.880 12583056 12452723 12275727 12066266 11843319 11626643 11434201 
1775.255 11280795 11176164 11123312 11117312 11145539 11189914 11229832 
1778.631 11248303 11235503 11191347 11123652 11045093 10967458 10897988 
1782.006 10838305 10784701 10732451 10679213 10625232 10574700 10533015 
1785.381 10504079 10489823 10491217 10509589 10549283 10616919 10719799 
1788.756 10862109 11039938 11240941 11445894 11632398 11781386 11882861 
1792.132 11937609 11957166 11959960 11965891 11993435 12055289 12159405 
1795.507 12308006 12498616 12724460 12974097 13233150 13484910 13714383 
1798.882 13911216 14072265 14201610 14308625 14403551 14493981 14580633 
1802.257 14658636 14718671 14751527 14753034 14725730 14680010 14631223 
1805.633 14594842 14582704 14599404 14641182 14697805 14755929 14803829 
1809.008 14834771 14848379 14849648 14845655 14841048 14833746 14814448 
1812.383 14767849 14677347 14531971 14331706 14089522 13831560 13590249 
1815.758 13398143 13279234 13244685 13290510 13400919 13553134 13724830 
1819.134 13897082 14056876 14195480 14305678 14379017 14406363 14378824 
1822.509 14290396 14140622 13935581 13688057 13414409 13131924 12855967 
1825.884 12597355 12362107 12151944 11965636 11800846 11655982 11530248 
1829.259 11423958 11336136 11264944 11203932 11144306 11075051 10986501 
1832.635 10873413 10736887 10585169 10431737 10290198 10171641 10079151 
1836.010 10009047 9951292 9893697 9826336 9744889 9651694 9554514 9464324 
1839.867 9392352 9346999 9332479 9346836 9382624 9426523 9462723 9474034 
1843.725 9448449 9381118 9277029 9149400 9016713 8894494 8790415 8700709 
1847.582 8612389 8509117 8379129 8222852 8055009 7901475 7791658 7747432 
1851.439 7776641 7867329 7993468 8121550 8220684 8271163 8270086 8229336 
1855.297 8172788 8129571 8127086 8185996 8318302 8525338 8800558 9130384 
1859.154 9499406 9891362 10291761 10687565 11067073 11417488 11723975 
1862.530 11970294 12142870 12233512 12245142 12192620 12102189 12003375 
1865.905 11924224 11882625 11883623 11920408 11980198 12049950 12122630 
1869.280 12199125 12285918 12391008 12518822 12667754 12830267 12992831 
1872.655 13141952 13264867 13352080 13396482 13396142 13352409 13272401 
1876.031 13167721 13053777 12946486 12857984 12793466 12750029 12718587 
1879.406 12688835 12653250 12611509 12569554 12537329 12523259 12531787 
1882.781 12559639 12600114 12644160 12685690 12721980 12755432 12788140 
1886.156 12821752 12854175 12881278 12895877 12892434 12865407 12812617 
1889.531 12732970 12630205 12511752 12391475 12287312 12217083 12192259 
1892.907 12210389 12251829 12283674 12266988 12171280 11986006 11726067 
1896.282 11427023 11131507 10872824 10661734 10481421 10296468 10068530 
1899.657 9774807 9419970 9037474 8677434 8389032 8202099 8118171 8108448 
1903.515 8129164 8133898 8091288 7992703 7853288 7702671 7576483 7503547 
1907.372 7499705 7563349 7678017 7813569 7933307 7999005 7979361 7856996 
1911.229 7633542 7330920 6988516 6653618 6372788 6179547 6088017 6091723 
1915.087 6166895 6281373 6401552 6499346 6557123 6564343 6520263 6426710 
1918.944 6289109 6114174 5912090 5696564 5487071 5306611 5182031 5135780 
1922.802 5182388 5319697 5528762 5771429 6000286 6169296 6247012 6225879 
1926.659 6125123 5982205 5842970 5743440 5704214 5725590 5796607 5907269 
1930.517 6055238 6249584 6501081 6806531 7138137 7438633 7633428 7653308 
1934.374 7464246 7086010 6597107 6117291 5775735 5671410 5847574 6277123 
1938.231 6881703 7553059 8191284 8727766 9141441 9449658 9700623 9945991 
1942.089 10230108 10572201 10969577 11392202 11795780 12125040 12329945 
1945.464 12375778 12260368 12015389 11707697 11420893 11234170 11192336 
1948.839 11290574 11471091 11643874 11712531 11613461 11331927 10912385 
1952.215 10429326 9964174 9571106 9261915 9008370 8763677 8487461 8167169 
1956.072 7821137 7493255 7230862 7075736 7052752 7178749 7469094 7942487 
1959.929 8602256 9418691 10297593 11079268 11550922 11501499 10780339 
1963.305 9359586 7353190 5003304 2620792 513244 -1087092 -2048565 -2344723 
1967.162 -2013027 -1125791 242350 2002332 4039189 6181678 8199833 9835846 
1971.020 10857432 11122101 10622117 9495500 7990544 6402845 5012407 4033571 
1974.877 3595715 3735281 4420793 5553778 6977053 8476619 9811230 10750915 
1978.734 11139059 10939576 10247572 9250809 8181571 7243476 6568561 6197937 
1982.592 6094054 6169121 6332741 6513030 6680389 6829696 6975585 7126477 
1986.449 7282248 7434070 7573768 7689233 7773059 7809386 7778955 7662769 
1990.307 7465322 7219534 6999105 6895159 6984394 7290577 7750859 8219141 
1994.164 8505525 8431034 7894967 6910845 5616385 4228370 2986571 2086687 
1998.021 1631359 1611320 1923365 2393894 2835520 3069037 2959411 2425660 
2001.879 1464408 148223 -1369368 -2876513 -4138255 -4952594 -5193829 
2005.254 -4860040 -4065842 -3024023 -1973553 -1117262 -563897 -327755 
2008.629 -341937 -517602 -777339 -1083088 -1425654 -1809411 -2217979 
2012.005 -2606681 -2896844 -2995182 -2803479 -2257310 -1330632 -64018 
2015.380 1433952 2982857 4350262 5289961 5599927 5176274 4059516 2428588 
2019.237 564434 -1232970 -2720399 -3772886 -4391082 -4676269 -4761415 
2022.613 -4757686 -4710884 -4617172 -4450612 -4208041 -3925878 -3674632 
2025.988 -3520744 -3489081 -3548239 -3629364 -3663014 -3634303 -3594463 
2029.363 -3655315 -3922036 -4443579 -5156600 -5897329 -6447152 -6608824 
2032.738 -6278702 -5487412 -4377953 -3158856 -2020292 -1086091 -382871 
2036.114 135742 560441 979734 1458726 2031868 2707878 3471193 4287877 
2039.971 5100397 5833330 6406798 6752015 6836031 6682997 6364654 5990789 
2043.828 5676742 5516949 5564403 5828083 6282600 6887248 7590320 8342203 
2047.686 9079925 9729135 10196332 10390218 10237537 9712201 8838967 7699425 
2051.543 6412368 5122875 3971727 3082635 2534075 2350083 2491510 2866318 
2055.401 3353899 3840128 4244969 4539146 4739257 4891518 5041131 5209295 
2059.258 5379628 5504339 5524927 5401540 5131114 4760859 4371496 4057084 
2063.115 3893523 3921489 4130554 4469683 4858766 5214053 5461445 5559166 
2066.973 5503339 5335368 5130761 4989984 5006242 5241927 5698123 6309967 
2070.830 6955007 7489318 7791170 7801916 7545518 7124620 6683235 6364564 
2074.688 6266777 6424996 6809873 7350838 7964496 8574058 9117768 9542781 
2078.545 9801782 9850713 9658541 9227068 8602606 7878060 7173363 6606599 
2082.403 6258885 6152561 6247811 6462366 6701139 6887604 6978174 6968157 
2086.260 6874554 6725678 6543043 6340997 6126851 5908409 5691032 5478483 
2090.117 5263727 5030743 4754599 4416714 4013977 3572534 3142097 2786944 
2093.975 2566521 2519861 2657918 2966482 3415316 3972422 4602392 5266565 
2097.832 5915153 6485447 6910255 7137398 7145138 6957928 6637734 6265701 
2101.690 5911521 5612258 5363759 5131752 4877624 4588067 4282987 4017238 
2105.547 3856663 3852222 4019087 4333834 4744846 5196966 5644315 6064090 
2109.405 6446098 6785761 7069119 7274795 7379054 7370936 7259251 7074302 
2113.262 6852201 6620811 6381966 6111478 5768444 5316307 4743666 4075668 
2117.119 3371313 2710593 2172014 1812623 1654345 1686591 1868899 2142797 
2120.977 2440222 2692478 2834546 2811771 2586814 2147906 1512407 723345 
2124.834 -157613 -1065000 -1941685 -2746576 -3457487 -4063275 -4560847 
2128.209 -4946097 -5215930 -5368898 -5415712 -5377574 -5290217 -5194103 
2131.585 -5131930 -5134566 -5222009 -5391342 -5623184 -5877415 -6104011 
2134.960 -6246907 -6265887 -6145689 -5915354 -5636232 -5399916 -5291764 
2138.335 -5363400 -5608072 -5961889 -6316363 -6561165 -6618633 -6482543 
2141.710 -6213582 -5930739 -5762974 -5817196 -6146507 -6736418 -7514291 
2145.086 -8371464 -9181920 -9827204 -10207804 -10260404 -9967658 -9368606 
2148.461 -8553509 -7655062 -6815720 -6158606 -5755470 -5627636 -5756987 
2151.836 -6124680 -6736114 -7638736 -8900800 -10568229 -12595969 -14820738 
2155.211 -16943346 -18580156 -19342904 -18940056 -17267920 -14462355 
2158.104 -10894823 -7103096 -3644548 -948570 801819 1666136 1885656 1777369 
2161.962 1632019 1657072 1959508 2541359 3334691 4231904 5133329 5962085 
2165.819 6692560 7317515 7830443 8198923 8353051 8203513 7684618 6782759 
2169.677 5572105 4195187 2839722 1678712 825198 312312 101932 116644 286875 
2174.016 571659 961583 1452012 2011891 2566350 3004907 3219624 3150919 
2177.874 2812924 2297483 1738483 1270302 979183 888363 959871 1140741 
2181.731 1382459 1680333 2065108 2584672 3274764 4144370 5154077 6241090 
2185.589 7309247 8247118 8929167 9227789 9029171 8274942 6994473 5332411 
2189.446 3532932 1904356 735087 223528 411905 1192459 2341138 3606272 
2193.303 4780448 5759128 6541722 7192164 7780195 8332738 8815630 9161036 
2197.161 9310354 9263575 9095894 8944420 8945644 9185317 9647054 10209209 
2201.018 10675254 10840469 10558506 9797248 8653274 7335435 6108633 5234275 
2204.876 4905306 5199316 6064039 7323335 8715793 9953473 10783075 11047250 
2208.733 10715039 9890283 8772437 7613776 6646277 6028560 5809793 5935463 
2212.591 6266899 6641268 6909420 6983259 6845108 6544123 6167597 5818386 
2216.448 5576022 5488807 5566478 5791291 6131195 6555444 7042283 7583613 
2220.305 8170514 8788467 9409310 9987682 10467278 10802456 10967422 10975612 
2224.163 10879092 10765246 10734181 10885570 11296846 12014295 13051136 
2227.538 14397359 16026467 17909292 20018378 22333636 24835886 27509664 
2230.913 30328694 33258822 36246496 39223780 42106388 44802872 47227192 
2234.289 49310840 51009860 52313236 53230932 53792932 54030852 53975336 
2237.664 53648768 53072072 52263384 51243960 50032112 48638152 47056800 
2241.039 45274784 43274156 41052616 38640856 36111580 33573104 31150332 
2244.414 28956140 27062244 25479772 24164908 23027054 21970976 20914528 
2247.790 19816602 18679728 17543854 16466340 15505267 14701618 14076729 
2251.165 13625617 13331734 13167809 13111251 13142807 13253388 13435270 
2254.540 13679147 13960170 14237447 14451424 14539343 14450924 14171534 
2257.915 13732018 13210752 12711987 12339999 12162499 12193679 12384158 
2261.291 12644194 12870388 12982041 12943710 12774237 12530427 12287484 
2264.666 12109975 12039464 12083898 12229225 12447032 12706447 12977914 
2268.041 13237381 13461745 13635565 13748483 13803496 13812147 13792878 
2271.416 13761846 13726068 13680123 13610261 13502652 13353848 13176212 
2274.792 12994488 12835857 12722095 12659170 12642750 12661933 12714606 
2278.167 12808744 12963740 13196876 13510325 13882226 14268909 14617323 
2281.542 14885116 15054295 15140481 15182542 15227620 15309678 15438286 
2284.917 15596647 15752174 15870156 15929928 15927281 15874345 15789893 
2288.292 15689772 15581377 15466246 15343530 15216076 15093130 14988489 
2291.668 14914718 14879698 14882597 14915804 14966537 15021766 15069379 
2295.043 15097867 15094707 15047291 14944400 14782386 14567805 14319967 
2298.418 14070234 13852124 13694676 13614583 13612414 13675471 13782152 
2301.793 13908762 14034591 14144387 14227848 14280144 14300789 14295495 
2305.169 14275397 14257617 14258816 14291720 14357668 14446685 14537919 
2308.544 14609639 14646768 14648584 14630441 14619124 14642609 14721197 
2311.919 14858909 15043430 15249535 15449228 15619371 15750047 15844170 
2315.294 15916441 15986016 16069736 16176976 16307913 16454762 16609112 
2318.670 16768310 16943228 17161080 17460724 17880938 18441996 19128074 
2322.045 19876964 20581706 21112504 21343540 21190222 20628824 19704864 
2325.420 18521282 17214742 15924942 14766579 13811667 13083742 12564956 
2328.795 12213412 11983506 11838526 11759273 11739909 11779688 11875684 
2332.171 12018563 12193981 12385308 12579173 12766265 12939517 13091553 
2335.546 13212864 13293064 13324674 13307810 13252729 13176200 13098232 
2338.921 13032329 12982492 12941589 12896351 12836013 12757353 12668608 
2342.296 12586591 12529614 12510027 12528637 12575566 12633366 12683956 
2345.672 12713867 12717034 12691621 12639190 12559653 12452287 12316221 
2349.047 12155463 11979225 11802160 11640411 11506271 11403213 11324469 
2352.422 11256495 11184162 11096669 10992121 10877288 10765419 10669997 
2355.797 10600489 10558409 10537374 10526273 10511931 10482031 10427568 
2359.173 10344105 10231399 10094019 9939224 9776259 9615776 9464258 9325340 
2363.030 9197284 9075830 8955682 8835103 8718284 8614073 8533623 8485794 
2366.887 8472419 8486563 8515107 8541290 8552445 8542629 8514601 8476821 
2370.745 8439898 8413415 8401341 8406140 8428375 8470359 8535676 8627988 
2374.602 8746214 8882835 9022863 9147477 9239580 9290010 9301909 9289166 
2378.460 9271491 9267405 9286067 9325503 9371959 9406815 9411825 9377257 
2382.317 9304605 9204688 9094702 8992728 8912793 8862956 8843387 8849240 
2386.175 8870644 8895406 8910925 8905702 8871829 8807452 8718148 8616443 
2390.032 8520133 8447429 8412794 8421920 8469959 8541674 8615262 8668332 
2393.889 8685035 8659987 8601164 8528478 8468172 8444582 8473341 8555604 
2397.747 8675077 8803904 8908910 8961372 8947375 8870492 8751794 8623434 
2401.604 8519267 8465935 8478067 8557149 8695689 8881936 9104292 9353637 
2405.462 9618502 9884825 10133049 10340110 10484450 10551421 10540314 
2408.837 10463825 10343534 10204984 10068174 9944711 9838711 9750666 9681791 
2412.694 9638707 9630708 9663787 9736598 9835040 9933207 10000960 10011602 
2416.552 9952816 9828934 9661123 9479284 9314382 9191723 9125548 9119119 
2420.409 9167126 9257635 9373279 9494083 9598099 9666682 9688295 9663072 
2424.267 9605496 9539065 9489394 9474737 9496330 9540891 9583443 9601176 
2428.124 9583029 9538000 9490600 9472664 9507935 9601483 9735965 9877753 
2431.981 9990738 10050892 10055652 10024598 9990196 9984602 10026321 
2435.357 10115062 10233425 10354537 10454508 10519212 10547805 10548422 
2438.732 10531412 10504192 10468470 10421387 10360485 10286577 10207989 
2442.107 10136562 10085458 10062525 10069742 10102386 10151803 10208195 
2445.482 10266329 10322114 10375960 10428355 10480116 10530917 10581328 
2448.858 10633976 10694267 10770658 10870044 10997291 11148650 11313468 
2452.233 11472628 11603446 11684940 11700882 11646705 11527971 11360859 
2455.608 11167480 10971677 10793920 10649175 10545183 10482030 10454393 
2458.983 10452082 10462113 10471820 10469014 10447519 10407237 10357961 
2462.359 10317404 10307064 10344354 10436059 10571425 10721629 10847978 
2465.734 10911090 10886974 10775254 10604146 10421850 10283601 10232349 
2469.109 10284564 10424874 10608148 10777138 10878650 10879365 10776004 
2472.484 10592524 10372023 10160833 9997499 9904044 9884126 9928845 10022766 
2476.342 10150932 10302449 10470451 10649735 10831279 11001219 11141539 
2479.717 11232369 11257053 11208998 11095221 10936476 10764321 10614387 
2483.092 10518083 10494782 10547515 10663702 10818780 10984923 11139418 
2486.468 11267938 11368878 11446040 11506162 11551638 11578963 11579958 
2489.843 11547930 11482200 11391848 11295459 11216062 11173428 11178343 
2493.218 11227245 11306807 11397180 11480491 11545623 11591062 11623812 
2496.593 11651895 11681825 11712268 11734777 11736120 11701644 11622621 
2499.969 11497698 11335573 11152897 10972693 10817985 10711299 10668811 
2503.344 10698674 10799848 10962167 11165905 11385194 11592105 11759345 
2506.719 11866642 11903776 11872468 11785786 11666561 11541512 11436424 
2510.094 11371138 11355585 11388957 11461610 11557089 11657745 11747086 
2513.469 11812643 11845558 11841261 11797457 11714718 11598928 11461793 
2516.845 11321923 11204009 11135448 11138927 11227143 11394924 11618821 
2520.220 11859139 12068440 12202005 12227401 12133748 11935627 11668179 
2523.595 11380335 11123546 10941821 10860430 10883968 10995429 11163261 
2526.970 11349451 11519329 11650522 11734619 11778862 11800676 11821651 
2530.346 11860597 11929736 12030616 12156392 12293939 12425780 12533748 
2533.721 12601855 12618096 12577513 12482716 12347280 12192606 12047410 
2537.096 11938547 11888208 11904832 11983191 12103937 12239543 12361261 
2540.471 12445666 12481405 12469466 12420727 12353486 12287332 12239135 
2543.847 12220915 12237296 12285994 12359441 12446739 12533821 12607711 
2547.222 12656367 12670375 12643309 12570797 12450173 12281341 12068564 
2550.597 11822093 11560384 11310081 11102870 10970180 10935177 11006451 
2553.972 11173057 11407642 11669734 11917269 12115038 12242431 12297331 
2557.348 12294511 12260411 12225358 12216090 12248911 12325739 12433993 
2560.723 12549163 12641041 12682221 12655674 12561276 12415498 12249843 
2564.098 12101241 12000788 11966879 11999630 12082325 12189644 12296154 
2567.473 12383443 12444442 12483956 12512292 12539952 12573993 12616401 
2570.849 12666148 12720310 12776737 12833701 12889136 12937781 12974194 
2574.224 12994056 12997265 12991757 12991083 13013116 13070570 13168393 
2577.599 13299097 13445170 13586381 13705777 13796593 13861827 13912547 
2580.974 13959995 14009021 14056250 14090325 14097550 14067852 13999914 
2584.350 13902480 13790190 13681169 13589281 13523732 13488609 13482967 
2587.725 13505265 13552304 13621326 13706443 13800540 13893723 13975305 
2591.100 14035883 14069535 14073631 14050416 14005274 13948802 13894665 
2594.475 13861479 13869190 13936280 14074108 14281264 14539603 14816142 
2597.851 15068256 15254020 15344043 15329517 15225231 15065389 14895290 
2601.226 14758334 14686317 14692794 14772746 14907962 15072351 15241725 
2604.601 15397798 15531288 15640678 15730508 15805840 15872266 15930928 
2607.976 15980406 16015876 16032429 16026095 15996696 15947636 15886102 
2611.352 15822884 15768239 15731217 15716130 15723506 15750293 15789909 
2614.727 15835600 15880961 15920801 15952658 15976083 15993446 16009325 
2618.102 16031185 16066609 16121406 16198320 16293848 16399281 16502913 
2621.477 16591871 16657420 16697781 16718222 16729584 16744219 16772354 
2624.853 16817890 16878444 16948828 17021714 17093570 17164836 17240902 
2628.228 17327786 17429744 17545718 17669362 17789868 17896976 17983586 
2631.603 18049856 18101272 18149428 18205046 18275052 18359982 18452042 
2634.978 18539354 18607974 18647598 18654292 18631950 18591932 18549228 
2638.354 18520816 18518600 18548734 18609014 18690032 18777402 18853862 
2641.729 18904908 18921084 18899968 18846796 18772418 18691602 18618336 
2645.104 18563300 18532654 18526054 18538608 18562844 18590024 18613470 
2648.479 18628276 18632024 18624890 18608470 18585884 18560258 18535780 
2651.854 18515492 18500728 18490516 18480300 18462928 18431252 18378744 
2655.230 18303870 18209760 18105960 18003744 17914732 17844832 17793602 
2658.605 17753624 17712200 17656806 17579110 17477140 17357328 17230860 
2661.980 17109646 17002808 16912956 16837400 16768895 16700909 16629942 
2665.355 16557520 16490186 16434833 16397031 16376872 16368803 16363872 
2668.731 16352123 16327363 16287521 16236095 16179357 16122779 16069684 
2672.106 16020790 15975559 15934804 15903462 15889807 15904527 15954657 
2675.481 16041115 16154939 16279243 16392361 16474307 16512733 16506163 
2678.856 16463222 16399650 16333267 16278030 16241597 16224610 16223025 
2682.232 16231528 16244181 16257916 16270034 16278189 16279036 16268250 
2685.607 16242208 16199911 16141627 16071592 15994489 15915111 15836518 
2688.982 15761878 15692905 15634203 15592108 15574574 15588753 15637821 
2692.357 15719006 15822018 15931766 16031615 16106794 16148418 16154932 
2695.733 16130202 16081644 16017672 15945343 15868468 15790660 15714187 
2699.108 15643496 15583564 15540839 15519951 15524352 15552794 15601653 
2702.483 15664235 15733557 15803359 15868016 15924612 15971057 16005434 
2705.858 16025824 16029499 16013900 15979746 15929846 15872108 15817536 
2709.234 15778502 15764931 15781844 15826158 15888607 15954724 16009932 
2712.609 16043210 16050616 16035609 16005915 15972290 15944583 15928902 
2715.984 15928630 15944138 15975069 16019979 16076129 16138878 16199639 
2719.359 16247999 16274087 16271580 16241103 16191151 16135875 16089452 
2722.735 16061943 16054543 16060041 16065443 16057676 16028756 15978685 
2726.110 15915507 15852034 15800448 15769446 15760692 15770717 15793109 
2729.485 15819730 15844248 15862539 15872587 15873831 15868742 15861912 
2732.860 15860762 15872465 15903078 15953442 16018892 16088495 16148390 
2736.236 16187074 16199945 16189102 16164001 16136503 16115613 16103914 
2739.611 16099298 16095966 16089227 16079538 16072791 16076723 16096681 
2742.986 16131843 16172733 16205432 16216854 16199972 16158558 16105425 
2746.361 16058173 16032491 16037518 16071705 16126672 16189873 16250238 
2749.737 16300464 16337870 16362172 16372431 16367631 16346002 16308183 
2753.112 16259445 16210318 16173845 16161324 16179141 16225468 16292542 
2756.487 16367976 16441405 16507264 16565740 16621456 16678767 16739162 
2759.862 16798648 16850000 16884854 16899028 16894094 16877828 16862212 
2763.238 16859488 16877656 16918686 16977654 17046126 17113232 17169576 
2766.613 17208926 17228850 17230270 17216526 17193286 17167804 17148454 
2769.988 17144364 17164574 17216078 17303564 17425742 17576306 17743728 
2773.363 17911128 18059864 18172550 18236746 18247012 18206484 18127286 
2776.739 18027896 17930344 17855558 17820634 17835966 17903450 18017978 
2780.114 18168746 18341276 18520534 18693704 18850570 18985318 19095670 
2783.489 19183208 19251104 19302524 19341212 19370068 19392180 19411014 
2786.864 19431076 19457520 19494210 19543304 19603306 19669436 19734088 
2790.240 19789182 19829724 19852988 19861774 19861632 19859138 19860588 
2793.615 19869664 19887866 19915486 19953380 20002676 20066116 20145030 
2796.990 20240278 20348194 20462844 20576604 20682112 20773978 20850128 
2800.365 20912142 20964646 21013204 21064138 21123032 21193088 21278108 
2803.740 21378290 21492600 21617460 21747384 21875284 21994154 22098206 
2807.116 22184206 22252246 22305530 22350966 22398120 22458188 22543222 
2810.491 22663574 22826204 23031528 23272468 23534908 23800246 24050812 
2813.866 24274212 24467756 24638754 24803070 24980128 25185078 25425578 
2817.241 25700138 25998402 26308096 26617114 26922586 27228714 27547534 
2820.617 27895036 28287228 28736328 29247602 29821438 30452020 31132362 
2823.992 31854588 32614096 33409532 34244240 35126044 36064124 37067236 
2827.367 38140772 39285832 40498000 41769068 43090412 44456380 45865196 
2830.742 47320636 48829620 50398700 52031780 53727168 55478964 57276904 
2834.118 59111344 60973804 62857664 64759584 66675864 68603576 70539024 
2837.493 72477136 74415240 76351392 78285976 80219024 82150272 84075072 
2840.868 85984336 87863992 89697096 91465016 93149696 94735096 96208000 
2844.243 97558424 98779008 99864824 100813744 101625848 102304736 102854400 
2847.619 103281488 103593224 103795696 103894488 103892344 103790384 
2850.512 103586752 103279360 102866288 102349192 101735040 101036432 
2853.405 100271424 99460456 98622840 97773024 96917176 96055320 95181200 
2856.780 94286704 93366536 92420136 91452648 90474600 89497936 88534648 
2860.155 87593664 86682056 85802608 84956112 84138712 83344912 82566600 
2863.531 81793768 81017040 80230912 79436328 78642208 77864304 77124832 
2866.906 76445048 75843360 75331720 74912848 74583000 74333136 74150856 
2870.281 74023936 73942304 73897912 73886688 73909696 73972904 74087640 
2873.656 74270520 74541440 74917352 75409776 76019360 76734616 77531936 
2877.031 78379624 79244720 80099400 80927336 81726160 82507072 83289864 
2880.407 84097344 84947272 85849384 86802456 87797528 88821680 89863192 
2883.782 90915984 91981168 93066208 94182456 95339288 96543960 97798008 
2887.157 99097488 100434480 101798704 103179408 104565776 105950240 
2890.050 107328128 108699128 110069784 111450280 112854600 114295904 
2892.943 115782688 117316208 118888816 120487832 122098680 123711720 
2895.836 125327112 126953680 128608320 130309744 132070888 133898016 
2898.729 135786688 137726048 139704992 141716736 143761904 145848912 
2901.623 147989264 150193696 152467584 154808672 157208464 159655408 
2904.516 162138800 164651488 167189024 169750368 172333280 174933760 
2907.409 177545136 180160064 182772288 185379904 187985264 190594832 
2910.302 193216272 195853360 198503200 201156272 203794064 206392832 
2913.195 208927440 211374016 213712848 215929952 218017168 219972256 
2916.088 221794288 223484944 225041760 226459248 227726784 228828912 
2918.981 229746624 230463568 230967424 231257264 231342368 231243488 
2921.874 230989456 230610512 230133584 229577808 228952160 228255072 
2924.767 227480928 226620896 225669280 224625040 223492272 222278944 
2927.660 220993616 219643392 218231760 216759520 215223872 213620704 
2930.553 211947136 210202256 208388528 206513200 204586720 202622960 
2933.446 200636032 198636800 196633104 194625408 192608880 190574064 
2936.339 188508640 186401280 184242352 182027104 179753952 177427120 
2939.232 175054304 172646688 170217232 167779696 165345536 162920656 
2942.125 160504496 158090224 155666688 153223632 150755888 148266848 
2945.019 145769120 143279488 140816288 138391040 136006896 133659008 
2947.912 131338448 129038008 126756128 124500584 122280888 120107976 
2950.805 117986952 115913768 113876992 111863096 109859656 107861488 
2953.698 105870080 103891792 101933312 99997880 98084216 96188008 94305744 
2957.073 92437240 90588024 88766616 86983112 85244704 83555504 81917328 
2960.448 80330864 78799680 77328616 75924048 74589520 73324992 72124632 
2963.823 70980848 69885528 68834928 67830240 66874860 65972032 65122268 
2967.199 64320960 63561424 62839888 62158480 61526004 60956372 60462296 
2970.574 60047120 59702876 59409864 59141548 58872800 58588252 58285524 
2973.949 57972892 57667232 57384328 57135392 56923504 56745296 56593636 
2977.324 56461104 56341212 56228100 56115784 55996948 55862620 55705788 
2980.700 55521500 55309256 55072532 54816296 54545812 54264984 53976404 
2984.075 53683780 53393072 53114308 52859812 52641980 52468304 52339004 
2987.450 52246468 52178320 52121600 52066104 52011196 51965048 51942484 
2990.825 51965716 52056824 52233712 52511120 52894920 53383412 53970780 
2994.201 54646932 55403780 56237256 57149292 58147892 59242720 60440656 
2997.576 61739496 63123120 64562312 66016280 67439352 68788224 70026328 
3000.951 71126144 72067752 72837096 73423160 73815696 74008800 74002560 
3004.326 73805864 73438408 72929088 72312352 71624264 70898448 70163800 
3007.702 69443504 68755128 68110984 67518304 66979980 66496156 66067988 
3011.077 65698236 65398224 65186524 65088892 65135308 65352888 65762080 
3014.452 66376516 67202952 68246960 69519376 71038904 72830504 74921336 
3017.827 77331960 80067056 83115328 86446304 90018312 93787376 97712168 
3021.203 101755984 105881784 110043656 114178384 118197944 121993848 
3024.096 125444576 128433304 130862000 132665920 133818256 134326048 
3026.989 134221616 133549752 132357400 130688368 128582016 126078296 
3029.882 123221784 120062880 116660064 113075352 109369480 105599616 
3032.775 101816664 98066464 94390704 90826304 87406456 84156424 81090728 
3036.150 78214592 75521360 72999536 70636144 68422360 66353872 64432652 
3039.525 62661552 61041232 59567948 58230296 57012812 55897204 54866464 
3042.901 53905940 53006272 52164968 51384952 50676540 50056528 49545972 
3046.276 49168496 48943500 48883876 48991272 49256640 49659100 50174592 
3049.651 50778100 51449836 52178976 52963024 53807908 54724808 55726592 
3053.026 56826124 58030060 59338836 60742188 62219064 63738904 65265416 
3056.402 66762732 68198208 69549624 70802048 71946688 72975000 73873352 
3059.777 74620824 75189960 75551904 75682232 75567016 75205784 74610880 
3063.152 73804384 72814256 71668552 70395344 69020304 67568672 66065260 
3066.527 64536408 63010348 61515700 60081708 58734464 57495388 56377912 
3069.903 55384456 54506304 53725476 53018676 52364856 51749880 51172028 
3073.278 50641516 50176508 49798952 49527420 49373420 49342032 49433740 
3076.653 49646924 49980016 50430056 50992056 51652632 52391808 53180664 
3080.028 53986052 54774300 55513768 56175076 56729300 57148980 57404928 
3083.404 57469788 57322004 56950344 56355344 55548908 54548788 53375756 
3086.779 52047740 50581272 48994040 47310160 45563716 43797448 42058952 
3090.154 40393712 38838280 37414852 36132964 34990604 33980952 33095260 
3093.529 32322746 31651504 31066848 30551076 30088202 29665508 29279512 
3096.905 28935862 28648694 28432676 28299136 28250692 28279944 28371398 
3100.280 28504638 28659344 28817048 28960958 29077100 29153888 29182794 
3103.655 29159798 29088132 28973996 28827666 28657242 28465238 28248078 
3107.030 27997888 27706888 27370260 26989372 26570338 26122426 25654678 
3110.406 25173296 24683122 24190768 23703902 23233532 22789296 22376848 
3113.781 21992604 21626070 21262458 20888660 20501966 20112116 19737138 
3117.156 19398396 19110232 18875264 18681742 18509144 18337140 18153370 
3120.531 17956998 17759232 17576938 17425522 17315882 17248554 17220192 
3123.906 17222428 17247422 17287934 17336226 17384424 17422148 17440998 
3127.282 17436338 17408482 17363714 17312214 17260702 17212742 17165508 
3130.657 17112060 17046726 16967616 16879550 16790836 16710712 16642865 
3134.032 16585305 16530983 16471917 16404636 16331969 16263917 16212143 
3137.407 16185813 16187776 16212253 16248632 16284600 16310683 16321929 
3140.783 16317168 16297976 16266346 16225541 16179457 16133465 16095681 
3144.158 16073169 16070783 16087061 16115572 16146310 16170939 16186604 
3147.533 16197000 16210774 16235210 16271379 16311357 16337197 16328922 
3150.908 16273737 16170360 16032832 15888512 15767727 15697427 15690953 
3154.284 15744619 15842294 15959041 16069802 16155211 16206147 16223652 
3157.659 16216181 16197056 16180258 16176054 16192185 16228879 16283063 
3161.034 16348926 16419686 16491104 16560856 16629353 16696500 16759843 
3164.409 16813126 16846686 16850738 16818480 16749252 16650375 16535020 
3167.785 16417719 16311124 16221609 16150130 16092980 16046861 16009873 
3171.160 15984671 15975194 15986025 16017696 16066078 16123414 16179381 
3174.535 16224302 16249971 16252119 16229779 16185176 16123416 16054606 
3177.910 15990786 15947515 15936827 15968228 16042806 16153762 16286729 
3181.286 16424969 16552065 16656052 16729124 16767424 16768785 16731068 
3184.661 16653188 16536299 16387671 16220640 16054751 15910733 15806206 
3188.036 15749838 15739612 15764114 15806260 15849484 15880212 15892452 
3191.411 15885869 15864631 15833538 15797090 15757421 15716026 15672483 
3194.787 15627958 15584495 15544766 15513376 15494193 15490636 15503150 
3198.162 15527776 15555838 15576834 15578858 15554615 15504523 15436935 
3201.537 15366542 15310720 15282664 15287864 15323753 15380261 15446556 
3204.912 15513304 15576531 15636124 15692513 15743338 15782779 15802570 
3208.288 15795805 15762050 15708502 15649131 15598347 15566589 15555263 
3211.663 15557385 15561763 15559040 15545337 15525813 15510377 15508288 
3215.038 15524184 15554414 15590579 15623415 15647529 15663780 15679389 
3218.413 15701041 15732838 15771870 15812749 15848894 15878787 15908476 
3221.789 15947565 16004590 16080648 16165048 16238129 16276222 16262226 
3225.164 16193204 16082002 15953476 15836926 15755491 15719995 15727319 
3228.539 15763525 15811970 15857726 15893864 15920050 15939858 15958047 
3231.914 15977973 15999964 16024452 16051762 16081793 16114758 16147513 
3235.290 16173450 16182367 16164063 16111583 16024372 15910992 15787499 
3238.665 15672011 15581887 15528095 15512390 15527616 15560980 15596525 
3242.040 15621434 15627885 15615868 15591787 15566936 15553815 15563846 
3245.415 15602579 15669381 15757415 15856793 15955662 16042704 16109528 
3248.791 16151115 16165053 16152751 16117459 16067559 16013728 15969031 
3252.166 15945463 15949134 15978094 16020695 16057635 16068194 16036870 
3255.541 15959937 15848296 15724625 15617294 15550753 15539631 15583299 
3258.916 15669886 15778778 15889898 15987946 16065050 16120318 16157787 
3262.292 16183466 16200947 16215043 16227718 16240835 16254943 16268177 
3265.667 16275832 16269807 16242102 16186582 16103012 15997849 15883250 
3269.042 15773548 15680475 15611037 15564477 15535656 15516798 15503084 
3272.417 15492982 15490441 15501715 15534263 15591612 15673658 15774934 
3275.792 15885139 15993077 16084801 16148780 16176526 16164735 16116463 
3279.168 16040267 15949225 15857497 15778391 15718605 15681889 15666494 
3282.543 15670005 15691333 15730705 15789339 15867034 15957076 16048256 
3285.918 16125480 16173875 16184291 16157361 16101340 16031204 15960386 
3289.293 15896387 15840303 15785526 15726330 15662044 15601052 15557464 
3292.669 15547499 15579890 15650019 15737826 15814183 15847847 15819034 
3296.044 15724847 15580179 15415055 15260500 15140925 15067596 15034121 
3299.419 15026157 15025810 15020936 15009315 14997358 14994906 15010363 
3302.794 15044956 15093381 15145362 15192162 15229566 15260124 15291461 
3306.170 15331887 15384397 15445116 15503975 15546010 15559577 15539571 
3309.545 15488850 15417835 15338596 15261555 15191374 15127160 15065813 
3312.920 15006671 14954166 14919735 14918464 14963469 15059327 15198734 
3316.295 15360742 15517590 15640277 15709339 15719289 15682003 15621469 
3319.671 15567814 15546279 15569333 15634105 15722150 15806220 15859267 
3323.046 15861567 15808092 15708178 15581182 15451268 15339254 15255725 
3326.421 15200355 15164241 15134355 15101228 15061853 15023357 14999675 
3329.796 15005751 15054190 15147251 15277823 15429753 15582854 15716596 
3333.172 15815105 15867643 15869491 15819624 15722493 15585456 15422480 
3336.547 15253327 15101461 14991020 14940219 14957130 15034738 15154073 
3339.922 15288774 15412338 15509435 15575117 15618103 15652483 15691349 
3343.297 15740082 15793644 15839944 15865868 15863558 15835812 15794048 
3346.673 15753506 15728086 15723623 15737662 15760006 15781231 15795283 
3350.048 15803279 15811052 15824888 15846360 15870871 15888985 15891271 
3353.423 15875136 15846524 15821164 15817596 15849089 15918022 16012274 
3356.798 16109815 16183998 16212421 16183699 16098369 15966436 15803082 
3360.174 15624173 15443771 15274928 15131377 15026626 14974191 14980841 
3363.549 15044576 15149322 15270441 15379321 15453417 15484824 15482193 
3366.924 15469418 15475580 15524708 15627092 15773963 15942788 16103208 
3370.299 16228350 16300574 16317023 16287051 16226679 16153412 16081709 
3373.675 16018802 15966732 15921652 15877692 15828408 15768481 15696215 
3377.050 15615677 15536022 15472298 15442607 15463478 15544668 15685871 
3380.425 15874453 16088365 16301231 16487790 16629655 16718293 16755821 
3383.800 16750159 16713534 16656479 16587503 16510908 16427940 16337695 
3387.176 16241072 16138753 16036188 15941771 15865266 15818030 15806654 
3390.551 15830705 15880993 15938003 15977304 15975369 15916618 15800800 
3393.926 15641887 15467488 15308517 15192142 15132574 15129038 15167003 
3397.301 15225107 15283003 15327378 15355948 15374403 15395134 15429193 
3400.677 15483867 15559284 15648853 15741408 15824655 15886502 15920211 
3404.052 15924407 15903743 15870076 15837768 15820276 15827080 15859099 
3407.427 15909841 15965164 16010685 16034758 16033826 16012568 15980683 
3410.802 15947644 15918598 15891254 15856132 15803976 15728030 15631838 
3414.177 15528877 15438926 15383028 15377424 15429114 15535496 15686078 
3417.553 15865901 16058272 16247518 16417481 16553026 16640609 16671263 
3420.928 16643925 16566947 16458426 16342545 16242001 16172050 16135912 
3424.303 16126715 16130477 16136419 16140869 16151290 16183175 16252376 
3427.678 16367640 16523601 16701104 16870058 16999770 17065728 17058582 
3431.054 16984174 16860760 16714554 16571311 16452307 16369276 16327405 
3434.429 16322793 16349250 16395962 16451901 16507044 16554495 16590444 
3437.804 16615573 16633458 16646849 16657708 16662236 16654773 16628748 
3441.179 16581623 16518572 16454931 16411452 16407868 16457232 16556680 
3444.555 16688475 16823088 16926692 16973864 16953718 16874202 16758624 
3447.930 16637368 16537687 16474489 16446523 16437842 16425114 16386375 
3451.305 16310401 16199151 16070535 15952416 15872894 15855797 15910173 
3454.680 16030738 16198674 16386585 16566347 16715491 16823688 16892994 
3458.056 16934746 16965500 16999508 17043726 17094682 17142756 17172168 
3461.431 17171774 17136580 17072828 16994328 16919756 16868026 16850180 
3464.806 16869354 16918496 16983324 17044228 17085400 17094166 17068304 
3468.181 17017104 16958218 16916174 16915500 16971452 17085452 17240088 
3471.557 17401530 17528930 17583046 17541484 17404908 17197758 16962524 
3474.932 16746584 16588941 16512301 16517736 16590953 16709276 16850126 
3478.307 16997322 17140956 17274852 17392584 17486560 17548596 17575648 
3481.682 17569682 17542702 17508244 17478446 17456580 17435408 17401384 
3485.058 17343170 17257964 17160124 17074994 17033074 17055994 17147760 
3488.433 17290994 17453224 17596916 17693982 17733398 17725434 17694764 
3491.808 17670052 17674246 17719304 17803252 17915456 18040816 18164228 
3495.183 18273152 18357378 18410910 18432212 18425134 18401402 18378250 
3498.559 18372684 18395870 18444644 18501416 18536602 18519544 18428156 
3501.934 18260180 18034640 17787346 17560924 17392248 17304332 17302370 
3505.309 17378048 17513320 17688482 17885576 18086628 18274356 18430856 
3508.684 18538702 18586326 18570162 18498434 18389134 18264978 18148566 
3512.060 18057798 18003402 17990326 18020594 18093518 18205112 18344916 
3515.435 18494672 18627858 18716976 18741246 18694032 18588996 18456208 
3518.810 18334016 18256050 18242384 18292804 18391404 18512124 18630282 
3522.185 18728636 18799492 18842834 18861490 18857564 18834612 18797342 
3525.561 18756634 18727980 18729356 18772256 18856460 18967198 19078332 
3528.936 19162032 19199104 19188230 19145606 19098356 19073124 19085204 
3532.311 19131894 19195540 19250554 19274878 19258890 19208510 19139852 
3535.686 19073552 19026212 19004368 19007080 19028890 19064006 19110406 
3539.062 19166552 19230438 19294460 19342460 19356266 19318620 19221316 
3542.437 19069442 18882964 18689330 18518600 18395736 18334532 18337856 
3545.812 18396706 18497784 18623280 18754762 18875464 18967766 19018430 
3549.187 19017684 18965614 18871502 18755222 18641776 18556648 18516172 
3552.563 18523330 18565640 18618206 18651240 18639112 18570350 18448528 
3555.938 18293534 18133386 17997298 17905656 17865154 17869602 17901486 
3559.313 17942448 17976256 17995522 17999866 17992514 17975972 17948074 
3562.688 17901186 17824790 17712544 17565288 17393994 17218968 17063148 
3566.063 16946000 16877694 16857272 16872814 16908796 16950764 16988562 
3569.439 17019432 17045646 17073306 17108746 17157716 17225128 17315656 
3572.814 17430280 17565652 17710176 17841812 17932758 17951834 17877314 
3576.189 17702946 17445262 17141532 16840900 16592601 16432585 16374521 
3579.564 16408607 16506840 16634956 16763717 16875250 16966902 17044906 
3582.940 17119810 17196538 17273532 17342622 17393236 17420202 17424468 
3586.315 17416958 17410888 17418514 17446220 17490160 17539770 17580488 
3589.690 17599690 17590626 17555208 17501858 17442714 17387050 17341118 
3593.065 17305526 17275706 17245758 17211104 17170904 17128522 17089746 
3596.441 17060354 17043846 17038180 17036606 17030452 17012124 16979198 
3599.816 16934092 16885354 16843596 16819440 16817350 16837096 16873974 
3603.191 16922934 16982652 17056872 17155262 17285566 17450704 17641884 
3606.566 17838934 18014542 18141128 18202202 18198710 18146828 18076544 
3609.942 18018226 17991592 17998472 18026048 18049156 18044786 18000942 
3613.317 17922574 17828324 17743988 17692334 17685004 17717650 17779632 
3616.692 17855324 17936010 18021206 18117098 18231460 18365632 18510166 
3620.067 18645646 18748154 18798608 18789576 18728322 18636568 18542488 
3623.443 18476080 18460680 18509916 18626486 18800838 19014282 19238512 
3626.818 19439352 19581500 19635340 19587072 19446040 19242418 19027086 
3630.193 18854568 18767964 18787502 18905186 19091730 19306368 19514386 
3633.568 19697252 19856166 20006968 20168068 20348628 20540850 20722396 
3636.944 20863234 20939760 20942168 20878984 20774126 20657888 20557630 
3640.319 20491440 20467150 20485014 20542488 20637142 20764840 20919004 
3643.694 21087414 21250624 21386842 21476830 21510036 21489612 21428532 
3647.069 21346976 21263690 21191168 21132348 21084662 21042970 21004576 
3650.445 20970338 20944918 20930152 20924092 20919740 20906806 20878536 
3653.820 20833208 20777448 20721054 20673976 20637926 20607020 20567396 
3657.195 20505790 20415812 20304090 20188780 20093834 20041718 20041040 
3660.570 20086424 20155526 20218752 20247834 20223706 20141072 20006914 
3663.946 19836108 19644128 19445116 19249030 19064342 18899790 18765454 
3667.321 18674484 18634768 18648776 18710628 18804236 18909560 19004340 
3670.696 19072802 19107680 19111794 19093984 19066816 19043824 19033758 
3674.071 19041928 19067956 19106072 19145920 19173700 19175598 19141248 
3677.447 19067186 18959442 18832194 18706278 18599454 18522460 18472954 
3680.822 18435156 18384520 18296974 18157090 17965730 17740902 17513578 
3684.197 17317940 17180514 17114022 17113792 17161708 17234200 17308196 
3687.572 17368262 17408208 17426176 17423634 17399464 17349340 17267186 
3690.948 17148928 16997886 16826674 16652718 16500115 16388904 16331822 
3694.323 16333211 16386544 16480088 16600508 16735449 16876498 17018836 
3697.698 17158992 17293868 17416036 17515316 17579562 17597714 17564060 
3701.073 17480320 17358990 17221530 17095196 17005912 16973658 17006250 
3704.448 17098642 17232876 17385518 17532136 17654094 17742070 17794428 
3707.824 17817610 17818188 17802738 17775850 17742994 17709504 17687694 
3711.199 17690860 17730832 17813342 17932694 18068634 18193042 18275304 
3714.574 18292364 18236852 18116712 17955846 17784364 17630416 17513294 
3717.949 17439732 17405506 17400912 17413260 17435822 17464620 17500782 
3721.325 17545674 17600430 17662056 17726070 17785362 17831698 17859210 
3724.700 17864390 17847986 17816848 17784328 17769276 17791054 17862780 
3728.075 17985112 18141712 18301116 18422084 18466964 18412472 18259326 
3731.450 18035148 17784942 17558960 17399582 17328190 17343430 17426958 
3734.826 17553664 17703184 17863642 18036548 18224916 18427752 18634676 
3738.201 18823512 18966798 19041192 19034368 18952070 18815468 18654264 
3741.576 18500808 18379176 18303668 18276556 18293836 18344868 18418746 
3744.951 18504320 18591426 18673032 18741480 18796636 18840124 18879358 
3748.327 18924252 18983232 19061332 19157306 19262866 19366444 19453832 
3751.702 19513694 19538470 19524624 19473902 19392204 19288090 19173380 
3755.077 19059406 18958624 18878346 18819456 18774650 18730590 18670276 
3758.452 18580976 18459292 18313774 18165840 18041566 17966398 17957742 
3761.828 18015868 18127070 18263904 18393468 18484106 18511574 18465376 
3765.203 18350792 18186100 18001072 17829642 17701836 17639878 17650212 
3768.578 17724536 17842188 17976162 18102104 18203702 18276020 18322962 
3771.953 18352224 18367840 18366394 18337388 18268292 18152526 17994756 
3775.329 17813440 17637410 17498026 17420456 17414334 17473988 17580346 
3778.704 17707998 17833538 17942154 18028524 18098702 18161304 18230004 
3782.079 18314688 18421958 18554356 18708990 18876100 19040860 19183986 
3785.454 19287056 19335962 19326876 19267004 19173228 19067110 18967200 
3788.830 18883774 18816202 18755478 18690166 18615438 18535614 18466064 
3792.205 18428010 18440646 18513776 18643502 18811664 18992986 19163050 
3795.580 19304164 19412876 19496290 19570818 19650332 19744006 19847390 
3798.955 19944686 20011562 20021876 19958270 19816654 19611028 19372492 
3802.331 19140816 18955118 18842684 18813970 18857914 18949816 19057812 
3805.706 19153216 19218792 19253126 19265902 19273956 19290056 19317392 
3809.081 19348950 19368384 19360746 19316190 19238156 19140430 19043838 
3812.456 18969200 18929684 18928502 18958246 19004492 19053686 19096374 
3815.832 19130122 19161062 19197258 19249452 19323416 19420318 19535166 
3819.207 19658888 19780596 19887742 19970966 20024482 20049310 20051838 
3822.582 20044496 20042026 20057248 20097348 20160422 20234800 20301628 
3825.957 20339986 20333052 20272982 20164374 20022120 19866360 19716610 
3829.333 19585322 19474036 19376214 19279656 19173188 19052322 18920130 
3832.708 18788046 18671478 18584298 18535254 18525250 18549294 18598790 
3836.083 18663846 18736894 18811374 18883560 18948438 19004072 19047758 
3839.458 19082572 19113924 19151334 19204068 19279482 19377188 19491542 
3842.833 19610442 19721386 19814458 19886156 19937380 19971210 19988284 
3846.209 19984214 19949186 19872872 19748428 19579328 19380144 19175004 
3849.584 18989442 18845656 18755124 18717730 18724074 18762168 18822216 
3852.959 18900094 18996462 19112750 19245992 19389488 19530314 19655160 
3856.334 19753414 19821438 19862326 19882398 19887598 19881290 19860222 
3859.710 19819226 19753632 19664338 19558072 19449584 19355836 19292618 
3863.085 19268614 19284484 19331570 19392916 19450522 19485208 19485308 
3866.460 19448988 19385314 19313202 19259478 19249822 19303050 19424114 
3869.835 19598792 19799346 19988944 20133308 20210724 20217138 20167450 
3873.211 20088402 20009340 19953120 19929362 19933142 19949394 19960194 
3876.586 19951890 19920448 19871574 19817362 19772240 19746870 19748542 
3879.961 19776750 19825778 19888482 19954582 20014456 20058726 20077750 
3883.336 20065532 20016586 19931428 19815912 19680708 19543138 19421822 
3886.712 19335394 19299626 19321954 19401882 19531100 19691906 19862934 
3890.087 20019418 20140728 20210546 20220750 20171186 20068886 19925196 
3893.462 19756032 19576530 19404186 19255698 19144778 19082920 19077318 
3896.837 19125772 19220600 19346542 19485070 19616844 19726704 19804568 
3900.213 19849770 19867000 19867492 19864588 19873058 19904428 19964984 
3903.588 20055392 20169256 20293368 20410580 20502944 20554594 20555820 
3906.963 20504378 20404312 20267408 20109384 19947534 19799550 19681030 
3910.338 19603902 19572896 19588156 19640654 19716772 19800644 19876674 
3913.714 19933566 19966860 19977324 19968494 19945624 19911584 19869266 
3917.089 19822212 19778822 19751576 19756766 19808458 19911796 20058268 
3920.464 20225164 20379096 20487190 20524824 20486310 20386228 20253636 
3923.839 20124702 20031142 19991892 20010272 20075242 20169186 20272508 
3927.215 20370196 20453166 20517584 20562388 20587840 20594452 20583010 
3930.590 20554692 20513316 20460994 20401800 20336790 20269002 20201724 
3933.965 20141030 20093768 20067474 20066374 20089282 20128034 20169696 
3937.340 20201864 20214770 20206946 20186048 20163296 20153874 20167440 
3940.716 20207556 20272264 20353772 20442836 20533116 20617868 20694840 
3944.091 20760332 20811548 20844126 20854480 20841280 20805844 20752128 
3947.466 20687948 20621634 20562982 20520874 20504174 20518998 20568790 
3950.841 20649596 20752154 20858054 20947158 20999558 21001456 20949918 
3954.217 20854868 20732482 20604638 20489368 20398090 20334118 20294406 
3957.592 20274060 20271222 20285504 20320094 20378586 20459270 20557104 
3960.967 20661612 20759766 20842674 20904478 20946360 20972304 20987084 
3964.342 20992030 20983148 20952852 20893288 20799400 20675694 20534412 
3967.718 20395900 20283170 20216454 20208664 20260756 20363170 20497964 
3971.093 20643720 20781130 20897008 20986406 21051442 21099044 21137990 
3974.468 21176816 21221112 21275022 21340820 21418502 21506346 21601424 
3977.843 21695188 21777640 21834344 21853680 21824814 21743192 21610806 
3981.219 21436194 21231510 21012510 20793484 20588860 20410646 20266604 
3984.594 20160466 20089838 20048854 20025896 20008810 19989850 19967944 
3987.969 19951242 19953926 19993770 20083770 20227558 20416204 20629938 
3991.344 20843614 21032874 21178274 21272162 21313038 21307438 21263256 
3994.719 21188918 21092190 20982178 20869330 20765310 20681906 20627706 
3998.095 20605128 20613242 20647102 20701086 20773994 20866238 
##END=
